{
  "AcquisitionMatrixPE": 104,
  "AcquisitionNumber": 1,
  "AcquisitionTime": "13:51:52.450000",
  "BandwidthPerPixelPhaseEncode": 16.578,
  "BaseResolution": 104,
  "BodyPartExamined": "BRAIN",
  "ConsistencyInfo": "N4_VE11C_LATEST_20160120",
  "ConversionSoftware": "dcm2niix",
  "ConversionSoftwareVersion": "v1.0.20190410  GCC6.3.0",
  "DerivedVendorReportedEchoSpacing": 0.000580009,
  "DeviceSerialNumber": "166018",
  "DwellTime": 2.1e-06,
  "EchoTime": 0.037,
  "EchoTrainLength": 104,
  "EffectiveEchoSpacing": 0.000580009,
  "FlipAngle": 68,
  "ImageComments": "Unaliased_MB6_PE3_LB",
  "ImageOrientationPatientDICOM": [0.998959, -0.00538936, 0.0452903, 0.00958961, 0.995616, -0.0930419],
  "ImageType": [
    "ORIGINAL",
    "PRIMARY",
    "M",
    "MB",
    "ND",
    "MOSAIC"
],
  "ImagingFrequency": 123.191,
  "InPlanePhaseEncodingDirectionDICOM": "COL",
  "InstitutionAddress": "Washington_Place_6_NYC_NYC_US_10003",
  "InstitutionName": "NYU_-_CBI",
  "InstitutionalDepartmentName": "Department",
  "MRAcquisitionType": "2D",
  "MagneticFieldStrength": 3,
  "Manufacturer": "Siemens",
  "ManufacturersModelName": "Prisma",
  "Modality": "MR",
  "MultibandAccelerationFactor": 6,
  "PartialFourier": 1,
  "PatientPosition": "HFS",
  "PercentPhaseFOV": 100,
  "PhaseEncodingDirection": "j",
  "PhaseEncodingSteps": 104,
  "PhaseResolution": 1,
  "PixelBandwidth": 2290,
  "ProcedureStepDescription": "Investigators_Winawer",
  "ProtocolName": "task-sfprescaled_cmrr_mbepi_s6_2mm_66sl_PA_TR1.0",
  "PulseSequenceDetails": "%CustomerSeq%_cmrr_mbep2d_bold",
  "ReceiveCoilActiveElements": "HC1-7",
  "ReceiveCoilName": "HeadNeck_64",
  "ReconMatrixPE": 104,
  "RepetitionTime": 1,
  "SAR": 0.069977,
  "ScanOptions": "FS",
  "ScanningSequence": "EP",
  "SequenceName": "epfid2d1_104",
  "SequenceVariant": "SK_SS",
  "SeriesDescription": "task-sfprescaled_cmrr_mbepi_s6_2mm_66sl_PA_TR1.0",
  "SeriesNumber": 10,
  "ShimSetting": [290, -12622, -8536, 412, 11, 26, 145, 1],
  "SliceThickness": 2,
  "SliceTiming": [0, 0.535, 0.09, 0.6225, 0.1775, 0.7125, 0.2675, 0.8025, 0.355, 0.89, 0.445, 0, 0.535, 0.09, 0.6225, 0.1775, 0.7125, 0.2675, 0.8025, 0.355, 0.89, 0.445, 0, 0.535, 0.09, 0.6225, 0.1775, 0.7125, 0.2675, 0.8025, 0.355, 0.89, 0.445, 0, 0.535, 0.09, 0.6225, 0.1775, 0.7125, 0.2675, 0.8025, 0.355, 0.89, 0.445, 0, 0.535, 0.09, 0.6225, 0.1775, 0.7125, 0.2675, 0.8025, 0.355, 0.89, 0.445, 0, 0.535, 0.09, 0.6225, 0.1775, 0.7125, 0.2675, 0.8025, 0.355, 0.89, 0.445],
  "SoftwareVersions": "syngo_MR_E11",
  "SpacingBetweenSlices": 2,
  "StationName": "AWP166018",
  "TaskName": "sfprescaled",
  "TotalReadoutTime": 0.0597409,
  "TxRefAmp": 228.882,
  "WipMemBlock": "c7edefe1-41bb-4e87-b9e0-9cf432de8593||Sequence: R016 ve11c/master r/8780670; Nov 27 2017 15:05:12 by eja",
  "dcmmeta_affine": [
    [-1.9979186058044434, 0.019179219380021095, 0.08918056637048721, 105.54573822021484],
    [0.010778723284602165, 1.9912320375442505, -0.1867588758468628, -79.39433288574219],
    [0.0905805453658104, 0.18608388304710388, 1.9892631769180298, -66.26029968261719],
    [0.0, 0.0, 0.0, 1.0]
],
  "dcmmeta_reorient_transform": [
    [0.0, -1.0, 0.0, 103.0],
    [1.0, 0.0, 0.0, 0.0],
    [0.0, 0.0, 1.0, 0.0],
    [0.0, 0.0, 0.0, 1.0]
],
  "dcmmeta_shape": [104, 104, 66, 264],
  "dcmmeta_slice_dim": 2,
  "dcmmeta_version": 0.6,
  "global": {
    "const": {
      "AccessionNumber": "juLLetfq",
  "NumberOfVolumes": 264,
      "AcquisitionMatrix": [104, 0, 0, 104],
      "AngioFlag": "N",
      "BitsAllocated": 16,
      "BitsStored": 16,
      "BodyPartExamined": "BRAIN",
      "Columns": 936,
      "EchoNumbers": 1,
      "EchoTime": 37.0,
      "EchoTrainLength": 104,
      "FlipAngle": 68.0,
      "HighBit": 15,
      "ImageOrientationPatient": [0.99895933151222, -0.0053893617229, 0.04529027229865, 0.00958960937728, 0.99561600835794, -0.0930419437318],
      "ImagePositionPatient": [-946.6339183146, -949.57113348364, -7.3642652504894],
      "ImageType": [
        "ORIGINAL",
        "PRIMARY",
        "M",
        "MB",
        "ND",
        "MOSAIC"
],
      "ImagedNucleus": "1H",
      "ImagingFrequency": 123.191066,
      "InPlanePhaseEncodingDirection": "COL",
      "MRAcquisitionType": "2D",
      "MagneticFieldStrength": 3.0,
      "Manufacturer": "SIEMENS",
      "ManufacturerModelName": "Prisma",
      "Modality": "MR",
      "NumberOfAverages": 1.0,
      "NumberOfPhaseEncodingSteps": 104,
      "PercentPhaseFieldOfView": 100.0,
      "PercentSampling": 100.0,
      "PerformedProcedureStepStartTime": "133403.321000",
      "PhotometricInterpretation": "MONOCHROME2",
      "PixelBandwidth": 2290.0,
      "PixelRepresentation": 0,
      "PixelSpacing": [2.0, 2.0],
      "ProtocolName": "task-sfprescaled_cmrr_mbepi_s6_2mm_66sl_PA_TR1.0",
      "RepetitionTime": 1000.0,
      "Rows": 936,
      "SAR": 0.06997703584336,
      "SamplesPerPixel": 1,
      "ScanOptions": "FS",
      "ScanningSequence": "EP",
      "SequenceName": "epfid2d1_104",
      "SequenceVariant": [
        "SK",
        "SS"
],
      "SeriesDescription": "task-sfprescaled_cmrr_mbepi_s6_2mm_66sl_PA_TR1.0",
      "SeriesNumber": 10,
      "SeriesTime": "135252.937000",
      "SliceLocation": -53.784471009778,
      "SliceThickness": 2.0,
      "SmallestImagePixelValue": 0,
      "SoftwareVersions": "syngo MR E11",
      "SpacingBetweenSlices": 2.0000000443055,
      "SpecificCharacterSet": "ISO_IR 100",
      "StudyID": "1",
      "StudyTime": "133403.273000",
      "TransmitCoilName": "Body",
      "VariableFlipAngleFlag": "N",
      "WindowCenterWidthExplanation": "Algo1",
      "dBdt": 0.0},
    "slices": {}
  },
  "time": {
    "samples": {
      "AcquisitionNumber": [1, 2, 3, 4, 5, 6, 7, 8, 9, 10, 11, 12, 13, 14, 15, 16, 17, 18, 19, 20, 21, 22, 23, 24, 25, 26, 27, 28, 29, 30, 31, 32, 33, 34, 35, 36, 37, 38, 39, 40, 41, 42, 43, 44, 45, 46, 47, 48, 49, 50, 51, 52, 53, 54, 55, 56, 57, 58, 59, 60, 61, 62, 63, 64, 65, 66, 67, 68, 69, 70, 71, 72, 73, 74, 75, 76, 77, 78, 79, 80, 81, 82, 83, 84, 85, 86, 87, 88, 89, 90, 91, 92, 93, 94, 95, 96, 97, 98, 99, 100, 101, 102, 103, 104, 105, 106, 107, 108, 109, 110, 111, 112, 113, 114, 115, 116, 117, 118, 119, 120, 121, 122, 123, 124, 125, 126, 127, 128, 129, 130, 131, 132, 133, 134, 135, 136, 137, 138, 139, 140, 141, 142, 143, 144, 145, 146, 147, 148, 149, 150, 151, 152, 153, 154, 155, 156, 157, 158, 159, 160, 161, 162, 163, 164, 165, 166, 167, 168, 169, 170, 171, 172, 173, 174, 175, 176, 177, 178, 179, 180, 181, 182, 183, 184, 185, 186, 187, 188, 189, 190, 191, 192, 193, 194, 195, 196, 197, 198, 199, 200, 201, 202, 203, 204, 205, 206, 207, 208, 209, 210, 211, 212, 213, 214, 215, 216, 217, 218, 219, 220, 221, 222, 223, 224, 225, 226, 227, 228, 229, 230, 231, 232, 233, 234, 235, 236, 237, 238, 239, 240, 241, 242, 243, 244, 245, 246, 247, 248, 249, 250, 251, 252, 253, 254, 255, 256, 257, 258, 259, 260, 261, 262, 263, 264],
      "AcquisitionTime": ["135152.450000", "135153.450000", "135154.450000", "135155.450000", "135156.450000", "135157.450000", "135158.450000", "135159.450000", "135200.450000", "135201.450000", "135202.450000", "135203.450000", "135204.450000", "135205.450000", "135206.450000", "135207.450000", "135208.450000", "135209.450000", "135210.450000", "135211.450000", "135212.450000", "135213.450000", "135214.450000", "135215.450000", "135216.450000", "135217.450000", "135218.450000", "135219.450000", "135220.450000", "135221.450000", "135222.450000", "135223.450000", "135224.450000", "135225.450000", "135226.450000", "135227.450000", "135228.450000", "135229.450000", "135230.450000", "135231.450000", "135232.450000", "135233.450000", "135234.450000", "135235.450000", "135236.450000", "135237.450000", "135238.450000", "135239.450000", "135240.450000", "135241.450000", "135242.450000", "135243.450000", "135244.450000", "135245.450000", "135246.450000", "135247.450000", "135248.450000", "135249.450000", "135250.450000", "135251.450000", "135252.450000", "135253.450000", "135254.450000", "135255.450000", "135256.450000", "135257.450000", "135258.450000", "135259.450000", "135300.450000", "135301.450000", "135302.450000", "135303.450000", "135304.450000", "135305.450000", "135306.450000", "135307.450000", "135308.450000", "135309.450000", "135310.450000", "135311.450000", "135312.450000", "135313.450000", "135314.450000", "135315.450000", "135316.450000", "135317.450000", "135318.450000", "135319.450000", "135320.450000", "135321.450000", "135322.450000", "135323.450000", "135324.450000", "135325.450000", "135326.450000", "135327.450000", "135328.450000", "135329.450000", "135330.450000", "135331.450000", "135332.450000", "135333.450000", "135334.450000", "135335.450000", "135336.450000", "135337.450000", "135338.450000", "135339.450000", "135340.450000", "135341.450000", "135342.450000", "135343.450000", "135344.450000", "135345.450000", "135346.450000", "135347.450000", "135348.450000", "135349.450000", "135350.450000", "135351.450000", "135352.450000", "135353.450000", "135354.450000", "135355.450000", "135356.450000", "135357.450000", "135358.450000", "135359.450000", "135400.450000", "135401.450000", "135402.450000", "135403.450000", "135404.450000", "135405.450000", "135406.450000", "135407.450000", "135408.450000", "135409.450000", "135410.450000", "135411.450000", "135412.450000", "135413.450000", "135414.450000", "135415.450000", "135416.450000", "135417.450000", "135418.450000", "135419.450000", "135420.450000", "135421.450000", "135422.450000", "135423.450000", "135424.450000", "135425.450000", "135426.450000", "135427.450000", "135428.450000", "135429.450000", "135430.450000", "135431.450000", "135432.450000", "135433.450000", "135434.450000", "135435.450000", "135436.450000", "135437.450000", "135438.450000", "135439.450000", "135440.450000", "135441.450000", "135442.450000", "135443.450000", "135444.450000", "135445.450000", "135446.450000", "135447.450000", "135448.450000", "135449.450000", "135450.450000", "135451.450000", "135452.450000", "135453.450000", "135454.450000", "135455.450000", "135456.450000", "135457.450000", "135458.450000", "135459.450000", "135500.450000", "135501.450000", "135502.450000", "135503.450000", "135504.450000", "135505.450000", "135506.450000", "135507.450000", "135508.450000", "135509.450000", "135510.450000", "135511.450000", "135512.450000", "135513.450000", "135514.450000", "135515.450000", "135516.450000", "135517.450000", "135518.450000", "135519.450000", "135520.450000", "135521.450000", "135522.450000", "135523.450000", "135524.450000", "135525.450000", "135526.450000", "135527.450000", "135528.450000", "135529.450000", "135530.450000", "135531.450000", "135532.450000", "135533.450000", "135534.450000", "135535.450000", "135536.450000", "135537.450000", "135538.450000", "135539.450000", "135540.450000", "135541.450000", "135542.450000", "135543.450000", "135544.450000", "135545.450000", "135546.450000", "135547.450000", "135548.450000", "135549.450000", "135550.450000", "135551.450000", "135552.450000", "135553.450000", "135554.450000", "135555.450000", "135556.450000", "135557.450000", "135558.450000", "135559.450000", "135600.450000", "135601.450000", "135602.450000", "135603.450000", "135604.450000", "135605.450000", "135606.450000", "135607.450000", "135608.450000", "135609.450000", "135610.450000", "135611.450000", "135612.450000", "135613.450000", "135614.450000", "135615.450000"],
      "ContentTime": ["135252.940000", "135252.943000", "135252.946000", "135252.949000", "135252.952000", "135252.955000", "135257.905000", "135257.916000", "135257.918000", "135257.921000", "135257.924000", "135257.927000", "135257.931000", "135302.905000", "135302.919000", "135302.922000", "135302.925000", "135302.927000", "135302.935000", "135302.938000", "135302.941000", "135307.906000", "135307.909000", "135307.912000", "135307.914000", "135307.917000", "135307.920000", "135307.923000", "135312.905000", "135312.908000", "135312.911000", "135312.914000", "135312.916000", "135312.919000", "135312.924000", "135317.905000", "135317.908000", "135317.911000", "135317.914000", "135317.916000", "135317.919000", "135317.922000", "135322.905000", "135322.908000", "135322.911000", "135322.914000", "135322.916000", "135322.919000", "135322.922000", "135327.905000", "135327.908000", "135327.911000", "135327.913000", "135327.916000", "135327.919000", "135327.922000", "135332.905000", "135332.908000", "135332.911000", "135332.914000", "135332.917000", "135332.919000", "135332.922000", "135337.905000", "135337.908000", "135337.911000", "135337.914000", "135337.917000", "135337.919000", "135337.922000", "135342.906000", "135342.909000", "135342.912000", "135342.915000", "135342.917000", "135342.920000", "135342.923000", "135347.905000", "135347.908000", "135347.911000", "135347.913000", "135347.916000", "135347.919000", "135347.922000", "135352.905000", "135352.908000", "135352.911000", "135352.914000", "135352.916000", "135352.919000", "135352.922000", "135352.925000", "135357.905000", "135357.908000", "135357.911000", "135357.913000", "135357.916000", "135357.919000", "135357.922000", "135402.906000", "135402.909000", "135402.912000", "135402.915000", "135402.918000", "135402.921000", "135407.905000", "135407.908000", "135407.911000", "135407.913000", "135407.916000", "135407.919000", "135407.922000", "135407.925000", "135412.905000", "135412.908000", "135412.911000", "135412.914000", "135412.916000", "135412.919000", "135412.922000", "135417.906000", "135417.909000", "135417.911000", "135417.914000", "135417.917000", "135417.920000", "135417.923000", "135422.905000", "135422.908000", "135422.911000", "135422.914000", "135422.917000", "135422.919000", "135422.922000", "135427.905000", "135427.923000", "135427.926000", "135427.929000", "135427.932000", "135427.935000", "135427.937000", "135432.905000", "135432.908000", "135432.911000", "135432.914000", "135432.916000", "135432.919000", "135432.922000", "135437.905000", "135437.908000", "135437.911000", "135437.913000", "135437.916000", "135437.919000", "135437.922000", "135442.905000", "135442.908000", "135442.911000", "135442.913000", "135442.916000", "135442.919000", "135442.922000", "135447.905000", "135447.908000", "135447.911000", "135447.914000", "135447.916000", "135447.919000", "135447.922000", "135452.906000", "135452.909000", "135452.912000", "135452.915000", "135452.918000", "135452.920000", "135452.923000", "135457.905000", "135457.908000", "135457.911000", "135457.914000", "135457.917000", "135457.919000", "135457.922000", "135502.905000", "135502.908000", "135502.911000", "135502.914000", "135502.916000", "135502.919000", "135507.905000", "135507.908000", "135507.911000", "135507.913000", "135507.916000", "135512.905000", "135512.908000", "135512.911000", "135512.914000", "135512.916000", "135517.905000", "135517.908000", "135517.911000", "135517.914000", "135517.916000", "135522.905000", "135522.908000", "135522.911000", "135522.914000", "135522.916000", "135527.906000", "135527.909000", "135527.912000", "135527.915000", "135527.918000", "135532.905000", "135532.908000", "135532.911000", "135532.913000", "135532.916000", "135537.905000", "135537.908000", "135537.911000", "135537.914000", "135537.916000", "135542.905000", "135542.908000", "135542.911000", "135542.913000", "135542.916000", "135547.905000", "135547.908000", "135547.911000", "135547.914000", "135547.916000", "135552.905000", "135552.908000", "135552.911000", "135552.914000", "135552.917000", "135557.905000", "135557.908000", "135557.911000", "135557.914000", "135557.917000", "135602.906000", "135602.909000", "135602.912000", "135602.915000", "135602.918000", "135607.905000", "135607.908000", "135607.911000", "135607.913000", "135607.916000", "135612.905000", "135612.908000", "135612.911000", "135612.914000", "135612.917000", "135617.289000", "135617.292000", "135617.295000", "135617.298000", "135617.301000"],
      "InstanceCreationTime": ["135252.940000", "135252.943000", "135252.946000", "135252.949000", "135252.952000", "135252.955000", "135257.905000", "135257.916000", "135257.918000", "135257.921000", "135257.924000", "135257.927000", "135257.931000", "135302.905000", "135302.919000", "135302.922000", "135302.925000", "135302.927000", "135302.935000", "135302.938000", "135302.941000", "135307.906000", "135307.909000", "135307.912000", "135307.914000", "135307.917000", "135307.920000", "135307.923000", "135312.905000", "135312.908000", "135312.911000", "135312.914000", "135312.916000", "135312.919000", "135312.924000", "135317.905000", "135317.908000", "135317.911000", "135317.914000", "135317.916000", "135317.919000", "135317.922000", "135322.905000", "135322.908000", "135322.911000", "135322.914000", "135322.916000", "135322.919000", "135322.922000", "135327.905000", "135327.908000", "135327.911000", "135327.913000", "135327.916000", "135327.919000", "135327.922000", "135332.905000", "135332.908000", "135332.911000", "135332.914000", "135332.917000", "135332.919000", "135332.922000", "135337.905000", "135337.908000", "135337.911000", "135337.914000", "135337.917000", "135337.919000", "135337.922000", "135342.906000", "135342.909000", "135342.912000", "135342.915000", "135342.917000", "135342.920000", "135342.923000", "135347.905000", "135347.908000", "135347.911000", "135347.913000", "135347.916000", "135347.919000", "135347.922000", "135352.905000", "135352.908000", "135352.911000", "135352.914000", "135352.916000", "135352.919000", "135352.922000", "135352.925000", "135357.905000", "135357.908000", "135357.911000", "135357.913000", "135357.916000", "135357.919000", "135357.922000", "135402.906000", "135402.909000", "135402.912000", "135402.915000", "135402.918000", "135402.921000", "135407.905000", "135407.908000", "135407.911000", "135407.913000", "135407.916000", "135407.919000", "135407.922000", "135407.925000", "135412.905000", "135412.908000", "135412.911000", "135412.914000", "135412.916000", "135412.919000", "135412.922000", "135417.906000", "135417.909000", "135417.911000", "135417.914000", "135417.917000", "135417.920000", "135417.923000", "135422.905000", "135422.908000", "135422.911000", "135422.914000", "135422.917000", "135422.919000", "135422.922000", "135427.905000", "135427.923000", "135427.926000", "135427.929000", "135427.932000", "135427.935000", "135427.937000", "135432.905000", "135432.908000", "135432.911000", "135432.914000", "135432.916000", "135432.919000", "135432.922000", "135437.905000", "135437.908000", "135437.911000", "135437.913000", "135437.916000", "135437.919000", "135437.922000", "135442.905000", "135442.908000", "135442.911000", "135442.913000", "135442.916000", "135442.919000", "135442.922000", "135447.905000", "135447.908000", "135447.911000", "135447.914000", "135447.916000", "135447.919000", "135447.922000", "135452.906000", "135452.909000", "135452.912000", "135452.915000", "135452.918000", "135452.920000", "135452.923000", "135457.905000", "135457.908000", "135457.911000", "135457.914000", "135457.917000", "135457.919000", "135457.922000", "135502.905000", "135502.908000", "135502.911000", "135502.914000", "135502.916000", "135502.919000", "135507.905000", "135507.908000", "135507.911000", "135507.913000", "135507.916000", "135512.905000", "135512.908000", "135512.911000", "135512.914000", "135512.916000", "135517.905000", "135517.908000", "135517.911000", "135517.914000", "135517.916000", "135522.905000", "135522.908000", "135522.911000", "135522.914000", "135522.916000", "135527.906000", "135527.909000", "135527.912000", "135527.915000", "135527.918000", "135532.905000", "135532.908000", "135532.911000", "135532.913000", "135532.916000", "135537.905000", "135537.908000", "135537.911000", "135537.914000", "135537.916000", "135542.905000", "135542.908000", "135542.911000", "135542.913000", "135542.916000", "135547.905000", "135547.908000", "135547.911000", "135547.914000", "135547.916000", "135552.905000", "135552.908000", "135552.911000", "135552.914000", "135552.917000", "135557.905000", "135557.908000", "135557.911000", "135557.914000", "135557.917000", "135602.906000", "135602.909000", "135602.912000", "135602.915000", "135602.918000", "135607.905000", "135607.908000", "135607.911000", "135607.913000", "135607.916000", "135612.905000", "135612.908000", "135612.911000", "135612.914000", "135612.917000", "135617.289000", "135617.292000", "135617.295000", "135617.298000", "135617.301000"],
      "InstanceNumber": [1, 2, 3, 4, 5, 6, 7, 8, 9, 10, 11, 12, 13, 14, 15, 16, 17, 18, 19, 20, 21, 22, 23, 24, 25, 26, 27, 28, 29, 30, 31, 32, 33, 34, 35, 36, 37, 38, 39, 40, 41, 42, 43, 44, 45, 46, 47, 48, 49, 50, 51, 52, 53, 54, 55, 56, 57, 58, 59, 60, 61, 62, 63, 64, 65, 66, 67, 68, 69, 70, 71, 72, 73, 74, 75, 76, 77, 78, 79, 80, 81, 82, 83, 84, 85, 86, 87, 88, 89, 90, 91, 92, 93, 94, 95, 96, 97, 98, 99, 100, 101, 102, 103, 104, 105, 106, 107, 108, 109, 110, 111, 112, 113, 114, 115, 116, 117, 118, 119, 120, 121, 122, 123, 124, 125, 126, 127, 128, 129, 130, 131, 132, 133, 134, 135, 136, 137, 138, 139, 140, 141, 142, 143, 144, 145, 146, 147, 148, 149, 150, 151, 152, 153, 154, 155, 156, 157, 158, 159, 160, 161, 162, 163, 164, 165, 166, 167, 168, 169, 170, 171, 172, 173, 174, 175, 176, 177, 178, 179, 180, 181, 182, 183, 184, 185, 186, 187, 188, 189, 190, 191, 192, 193, 194, 195, 196, 197, 198, 199, 200, 201, 202, 203, 204, 205, 206, 207, 208, 209, 210, 211, 212, 213, 214, 215, 216, 217, 218, 219, 220, 221, 222, 223, 224, 225, 226, 227, 228, 229, 230, 231, 232, 233, 234, 235, 236, 237, 238, 239, 240, 241, 242, 243, 244, 245, 246, 247, 248, 249, 250, 251, 252, 253, 254, 255, 256, 257, 258, 259, 260, 261, 262, 263, 264],
      "LargestImagePixelValue": [30813, 30321, 29238, 29103, 29299, 28908, 29488, 29773, 29213, 29264, 29148, 29052, 29217, 28800, 29156, 29145, 29522, 29079, 29219, 29719, 29048, 28707, 29306, 28945, 29429, 29228, 29964, 29038, 29178, 28982, 29168, 28939, 29461, 29409, 29199, 29134, 29055, 29385, 28990, 29123, 28990, 29090, 29039, 28894, 29288, 29127, 29335, 29263, 29125, 29603, 28949, 29223, 29064, 29075, 29512, 28978, 29218, 29434, 29234, 29334, 29296, 29317, 29481, 29250, 29107, 29289, 29029, 28979, 29386, 29391, 29253, 29581, 29017, 29288, 29270, 29030, 29268, 29127, 29370, 30163, 29590, 29381, 30077, 29608, 29625, 29616, 29403, 29096, 29401, 29730, 29023, 29448, 29032, 28955, 28788, 29147, 29185, 28920, 29171, 29105, 29167, 29372, 29298, 29229, 29376, 28867, 29333, 29000, 29075, 29369, 29244, 29156, 29153, 29471, 29668, 29372, 29244, 29592, 29217, 29539, 29362, 29140, 29403, 28959, 29324, 29191, 29195, 29141, 28985, 29227, 29333, 29695, 29829, 29776, 29611, 29609, 29757, 29690, 29673, 29614, 29686, 29653, 29561, 29555, 29583, 29623, 29692, 29155, 29258, 30009, 29380, 29251, 29115, 29167, 29585, 29222, 29410, 29798, 29666, 29644, 29377, 29339, 29435, 29642, 29412, 29424, 29401, 29499, 29847, 29906, 29525, 29670, 29471, 28957, 29891, 29599, 29403, 29124, 29715, 29667, 29691, 29156, 29514, 29351, 29194, 29264, 29371, 29284, 29396, 29449, 29455, 29433, 29141, 29118, 29673, 29539, 29377, 29770, 29460, 29570, 29675, 29707, 29655, 29793, 29569, 29322, 29723, 29411, 29371, 29353, 29961, 29559, 28955, 29713, 29315, 29324, 29433, 29501, 29603, 29069, 29350, 29487, 29087, 29172, 29361, 29368, 29240, 29815, 29434, 29145, 28878, 29520, 29569, 29338, 29501, 29704, 29789, 29463, 29525, 29534, 29097, 29293, 29660, 29227, 29682, 29293, 29769, 29893, 29766, 29674, 29562, 29663, 29294, 29425, 29372, 29481, 29350, 29592, 29603, 29778, 29386, 29912, 29351, 29191],
      "WindowCenter": [9529.0, 9497.0, 9471.0, 9467.0, 9473.0, 9467.0, 9479.0, 9469.0, 9462.0, 9469.0, 9471.0, 9463.0, 9469.0, 9472.0, 9463.0, 9462.0, 9469.0, 9460.0, 9452.0, 9464.0, 9453.0, 9454.0, 9466.0, 9464.0, 9468.0, 9462.0, 9481.0, 9461.0, 9453.0, 9453.0, 9453.0, 9446.0, 9452.0, 9459.0, 9451.0, 9445.0, 9453.0, 9459.0, 9453.0, 9460.0, 9462.0, 9461.0, 9461.0, 9464.0, 9467.0, 9460.0, 9473.0, 9453.0, 9451.0, 9471.0, 9448.0, 9458.0, 9468.0, 9459.0, 9464.0, 9461.0, 9461.0, 9466.0, 9470.0, 9468.0, 9466.0, 9474.0, 9459.0, 9451.0, 9452.0, 9457.0, 9445.0, 9452.0, 9458.0, 9457.0, 9450.0, 9455.0, 9442.0, 9447.0, 9443.0, 9449.0, 9450.0, 9460.0, 9466.0, 9471.0, 9467.0, 9467.0, 9469.0, 9463.0, 9464.0, 9464.0, 9466.0, 9475.0, 9474.0, 9480.0, 9476.0, 9475.0, 9454.0, 9454.0, 9445.0, 9449.0, 9451.0, 9438.0, 9449.0, 9459.0, 9458.0, 9463.0, 9466.0, 9460.0, 9458.0, 9462.0, 9461.0, 9461.0, 9468.0, 9466.0, 9458.0, 9459.0, 9460.0, 9458.0, 9463.0, 9465.0, 9459.0, 9460.0, 9460.0, 9465.0, 9459.0, 9452.0, 9458.0, 9453.0, 9464.0, 9452.0, 9457.0, 9460.0, 9459.0, 9459.0, 9466.0, 9464.0, 9463.0, 9456.0, 9464.0, 9455.0, 9455.0, 9462.0, 9455.0, 9449.0, 9455.0, 9463.0, 9450.0, 9457.0, 9465.0, 9464.0, 9470.0, 9461.0, 9459.0, 9470.0, 9467.0, 9454.0, 9452.0, 9460.0, 9458.0, 9451.0, 9457.0, 9462.0, 9454.0, 9454.0, 9449.0, 9448.0, 9448.0, 9462.0, 9456.0, 9457.0, 9467.0, 9460.0, 9466.0, 9467.0, 9460.0, 9460.0, 9461.0, 9441.0, 9458.0, 9467.0, 9460.0, 9461.0, 9475.0, 9464.0, 9459.0, 9454.0, 9450.0, 9450.0, 9458.0, 9459.0, 9468.0, 9475.0, 9485.0, 9475.0, 9467.0, 9467.0, 9462.0, 9454.0, 9459.0, 9460.0, 9458.0, 9457.0, 9459.0, 9450.0, 9448.0, 9457.0, 9449.0, 9448.0, 9458.0, 9450.0, 9456.0, 9457.0, 9451.0, 9450.0, 9461.0, 9451.0, 9437.0, 9448.0, 9451.0, 9450.0, 9443.0, 9457.0, 9457.0, 9451.0, 9466.0, 9461.0, 9460.0, 9453.0, 9467.0, 9450.0, 9443.0, 9454.0, 9457.0, 9452.0, 9455.0, 9475.0, 9477.0, 9476.0, 9469.0, 9482.0, 9474.0, 9460.0, 9466.0, 9458.0, 9452.0, 9451.0, 9458.0, 9445.0, 9456.0, 9458.0, 9463.0, 9456.0, 9458.0, 9454.0, 9442.0, 9456.0, 9449.0, 9450.0, 9459.0, 9466.0, 9459.0, 9458.0, 9473.0, 9464.0, 9457.0, 9464.0, 9458.0, 9452.0],
      "WindowWidth": [20291.0, 20197.0, 20141.0, 20124.0, 20130.0, 20117.0, 20140.0, 20111.0, 20098.0, 20112.0, 20118.0, 20102.0, 20113.0, 20121.0, 20101.0, 20096.0, 20114.0, 20093.0, 20074.0, 20099.0, 20079.0, 20082.0, 20106.0, 20109.0, 20112.0, 20100.0, 20135.0, 20098.0, 20082.0, 20083.0, 20082.0, 20066.0, 20076.0, 20093.0, 20074.0, 20064.0, 20083.0, 20091.0, 20081.0, 20096.0, 20101.0, 20097.0, 20097.0, 20110.0, 20108.0, 20094.0, 20121.0, 20080.0, 20074.0, 20115.0, 20073.0, 20091.0, 20114.0, 20093.0, 20100.0, 20099.0, 20097.0, 20105.0, 20120.0, 20112.0, 20106.0, 20122.0, 20089.0, 20074.0, 20081.0, 20084.0, 20063.0, 20079.0, 20088.0, 20085.0, 20074.0, 20081.0, 20056.0, 20064.0, 20061.0, 20068.0, 20074.0, 20098.0, 20105.0, 20115.0, 20110.0, 20110.0, 20106.0, 20098.0, 20099.0, 20098.0, 20106.0, 20124.0, 20121.0, 20132.0, 20128.0, 20123.0, 20082.0, 20087.0, 20063.0, 20067.0, 20078.0, 20051.0, 20067.0, 20092.0, 20087.0, 20097.0, 20108.0, 20094.0, 20090.0, 20104.0, 20097.0, 20096.0, 20112.0, 20105.0, 20088.0, 20093.0, 20095.0, 20088.0, 20098.0, 20102.0, 20091.0, 20096.0, 20095.0, 20101.0, 20093.0, 20079.0, 20088.0, 20083.0, 20097.0, 20076.0, 20087.0, 20095.0, 20092.0, 20090.0, 20107.0, 20099.0, 20095.0, 20084.0, 20099.0, 20078.0, 20078.0, 20091.0, 20078.0, 20065.0, 20080.0, 20095.0, 20070.0, 20084.0, 20103.0, 20098.0, 20108.0, 20101.0, 20091.0, 20108.0, 20109.0, 20083.0, 20077.0, 20096.0, 20085.0, 20072.0, 20086.0, 20090.0, 20074.0, 20077.0, 20069.0, 20066.0, 20066.0, 20092.0, 20081.0, 20086.0, 20108.0, 20094.0, 20106.0, 20110.0, 20096.0, 20093.0, 20096.0, 20057.0, 20085.0, 20107.0, 20092.0, 20094.0, 20123.0, 20096.0, 20085.0, 20080.0, 20069.0, 20066.0, 20089.0, 20092.0, 20109.0, 20124.0, 20148.0, 20124.0, 20105.0, 20110.0, 20099.0, 20082.0, 20089.0, 20092.0, 20084.0, 20084.0, 20090.0, 20070.0, 20065.0, 20084.0, 20068.0, 20066.0, 20090.0, 20073.0, 20082.0, 20088.0, 20074.0, 20068.0, 20088.0, 20072.0, 20045.0, 20063.0, 20074.0, 20069.0, 20058.0, 20088.0, 20084.0, 20075.0, 20105.0, 20096.0, 20093.0, 20080.0, 20107.0, 20069.0, 20056.0, 20077.0, 20087.0, 20077.0, 20086.0, 20126.0, 20131.0, 20126.0, 20115.0, 20140.0, 20121.0, 20093.0, 20107.0, 20088.0, 20075.0, 20073.0, 20087.0, 20061.0, 20080.0, 20090.0, 20094.0, 20080.0, 20088.0, 20076.0, 20054.0, 20081.0, 20068.0, 20071.0, 20091.0, 20105.0, 20088.0, 20087.0, 20116.0, 20096.0, 20083.0, 20099.0, 20086.0, 20075.0]
    },
    "slices": {}
  }
}