{
  "AcquisitionMatrixPE": 104,
  "AcquisitionNumber": 1,
  "AcquisitionTime": "14:06:44.495000",
  "BandwidthPerPixelPhaseEncode": 16.578,
  "BaseResolution": 104,
  "BodyPartExamined": "BRAIN",
  "ConsistencyInfo": "N4_VE11C_LATEST_20160120",
  "ConversionSoftware": "dcm2niix",
  "ConversionSoftwareVersion": "v1.0.20190410  GCC6.3.0",
  "DerivedVendorReportedEchoSpacing": 0.000580009,
  "DeviceSerialNumber": "166018",
  "DwellTime": 2.1e-06,
  "EchoTime": 0.037,
  "EchoTrainLength": 104,
  "EffectiveEchoSpacing": 0.000580009,
  "FlipAngle": 68,
  "ImageComments": "Unaliased_MB6_PE3_LB",
  "ImageOrientationPatientDICOM": [0.998959, -0.00538936, 0.0452903, 0.00958961, 0.995616, -0.0930419],
  "ImageType": [
    "ORIGINAL",
    "PRIMARY",
    "M",
    "MB",
    "ND",
    "MOSAIC"
],
  "ImagingFrequency": 123.191,
  "InPlanePhaseEncodingDirectionDICOM": "COL",
  "InstitutionAddress": "Washington_Place_6_NYC_NYC_US_10003",
  "InstitutionName": "NYU_-_CBI",
  "InstitutionalDepartmentName": "Department",
  "MRAcquisitionType": "2D",
  "MagneticFieldStrength": 3,
  "Manufacturer": "Siemens",
  "ManufacturersModelName": "Prisma",
  "Modality": "MR",
  "MultibandAccelerationFactor": 6,
  "PartialFourier": 1,
  "PatientPosition": "HFS",
  "PercentPhaseFOV": 100,
  "PhaseEncodingDirection": "j",
  "PhaseEncodingSteps": 104,
  "PhaseResolution": 1,
  "PixelBandwidth": 2290,
  "ProcedureStepDescription": "Investigators_Winawer",
  "ProtocolName": "task-sfprescaled_cmrr_mbepi_s6_2mm_66sl_PA_TR1.0",
  "PulseSequenceDetails": "%CustomerSeq%_cmrr_mbep2d_bold",
  "ReceiveCoilActiveElements": "HC1-7",
  "ReceiveCoilName": "HeadNeck_64",
  "ReconMatrixPE": 104,
  "RepetitionTime": 1,
  "SAR": 0.069977,
  "ScanOptions": "FS",
  "ScanningSequence": "EP",
  "SequenceName": "epfid2d1_104",
  "SequenceVariant": "SK_SS",
  "SeriesDescription": "task-sfprescaled_cmrr_mbepi_s6_2mm_66sl_PA_TR1.0",
  "SeriesNumber": 16,
  "ShimSetting": [290, -12622, -8536, 412, 11, 26, 145, 1],
  "SliceThickness": 2,
  "SliceTiming": [0, 0.535, 0.09, 0.625, 0.1775, 0.7125, 0.2675, 0.8025, 0.3575, 0.8925, 0.445, 0, 0.535, 0.09, 0.625, 0.1775, 0.7125, 0.2675, 0.8025, 0.3575, 0.8925, 0.445, 0, 0.535, 0.09, 0.625, 0.1775, 0.7125, 0.2675, 0.8025, 0.3575, 0.8925, 0.445, 0, 0.535, 0.09, 0.625, 0.1775, 0.7125, 0.2675, 0.8025, 0.3575, 0.8925, 0.445, 0, 0.535, 0.09, 0.625, 0.1775, 0.7125, 0.2675, 0.8025, 0.3575, 0.8925, 0.445, 0, 0.535, 0.09, 0.625, 0.1775, 0.7125, 0.2675, 0.8025, 0.3575, 0.8925, 0.445],
  "SoftwareVersions": "syngo_MR_E11",
  "SpacingBetweenSlices": 2,
  "StationName": "AWP166018",
  "TaskName": "sfprescaled",
  "TotalReadoutTime": 0.0597409,
  "TxRefAmp": 228.882,
  "WipMemBlock": "c7edefe1-41bb-4e87-b9e0-9cf432de8593||Sequence: R016 ve11c/master r/8780670; Nov 27 2017 15:05:12 by eja",
  "dcmmeta_affine": [
    [-1.9979186058044434, 0.019179219380021095, 0.08918056637048721, 105.54573822021484],
    [0.010778723284602165, 1.9912320375442505, -0.1867588758468628, -79.39433288574219],
    [0.0905805453658104, 0.18608388304710388, 1.9892631769180298, -66.26029968261719],
    [0.0, 0.0, 0.0, 1.0]
],
  "dcmmeta_reorient_transform": [
    [0.0, -1.0, 0.0, 103.0],
    [1.0, 0.0, 0.0, 0.0],
    [0.0, 0.0, 1.0, 0.0],
    [0.0, 0.0, 0.0, 1.0]
],
  "dcmmeta_shape": [104, 104, 66, 264],
  "dcmmeta_slice_dim": 2,
  "dcmmeta_version": 0.6,
  "global": {
    "const": {
      "AccessionNumber": "juLLetfq",
  "NumberOfVolumes": 264,
      "AcquisitionMatrix": [104, 0, 0, 104],
      "AngioFlag": "N",
      "BitsAllocated": 16,
      "BitsStored": 16,
      "BodyPartExamined": "BRAIN",
      "Columns": 936,
      "EchoNumbers": 1,
      "EchoTime": 37.0,
      "EchoTrainLength": 104,
      "FlipAngle": 68.0,
      "HighBit": 15,
      "ImageOrientationPatient": [0.99895933151222, -0.0053893617229, 0.04529027229865, 0.00958960937728, 0.99561600835794, -0.0930419437318],
      "ImagePositionPatient": [-946.6339183146, -949.57113348364, -7.3642652504894],
      "ImageType": [
        "ORIGINAL",
        "PRIMARY",
        "M",
        "MB",
        "ND",
        "MOSAIC"
],
      "ImagedNucleus": "1H",
      "ImagingFrequency": 123.191066,
      "InPlanePhaseEncodingDirection": "COL",
      "MRAcquisitionType": "2D",
      "MagneticFieldStrength": 3.0,
      "Manufacturer": "SIEMENS",
      "ManufacturerModelName": "Prisma",
      "Modality": "MR",
      "NumberOfAverages": 1.0,
      "NumberOfPhaseEncodingSteps": 104,
      "PercentPhaseFieldOfView": 100.0,
      "PercentSampling": 100.0,
      "PerformedProcedureStepStartTime": "133403.321000",
      "PhotometricInterpretation": "MONOCHROME2",
      "PixelBandwidth": 2290.0,
      "PixelRepresentation": 0,
      "PixelSpacing": [2.0, 2.0],
      "ProtocolName": "task-sfprescaled_cmrr_mbepi_s6_2mm_66sl_PA_TR1.0",
      "RepetitionTime": 1000.0,
      "Rows": 936,
      "SAR": 0.06997703584336,
      "SamplesPerPixel": 1,
      "ScanOptions": "FS",
      "ScanningSequence": "EP",
      "SequenceName": "epfid2d1_104",
      "SequenceVariant": [
        "SK",
        "SS"
],
      "SeriesDescription": "task-sfprescaled_cmrr_mbepi_s6_2mm_66sl_PA_TR1.0",
      "SeriesNumber": 16,
      "SeriesTime": "140744.946000",
      "SliceLocation": -53.784471009778,
      "SliceThickness": 2.0,
      "SmallestImagePixelValue": 0,
      "SoftwareVersions": "syngo MR E11",
      "SpacingBetweenSlices": 2.0000000443055,
      "SpecificCharacterSet": "ISO_IR 100",
      "StudyID": "1",
      "StudyTime": "133403.273000",
      "TransmitCoilName": "Body",
      "VariableFlipAngleFlag": "N",
      "WindowCenterWidthExplanation": "Algo1",
      "dBdt": 0.0},
    "slices": {}
  },
  "time": {
    "samples": {
      "AcquisitionNumber": [1, 2, 3, 4, 5, 6, 7, 8, 9, 10, 11, 12, 13, 14, 15, 16, 17, 18, 19, 20, 21, 22, 23, 24, 25, 26, 27, 28, 29, 30, 31, 32, 33, 34, 35, 36, 37, 38, 39, 40, 41, 42, 43, 44, 45, 46, 47, 48, 49, 50, 51, 52, 53, 54, 55, 56, 57, 58, 59, 60, 61, 62, 63, 64, 65, 66, 67, 68, 69, 70, 71, 72, 73, 74, 75, 76, 77, 78, 79, 80, 81, 82, 83, 84, 85, 86, 87, 88, 89, 90, 91, 92, 93, 94, 95, 96, 97, 98, 99, 100, 101, 102, 103, 104, 105, 106, 107, 108, 109, 110, 111, 112, 113, 114, 115, 116, 117, 118, 119, 120, 121, 122, 123, 124, 125, 126, 127, 128, 129, 130, 131, 132, 133, 134, 135, 136, 137, 138, 139, 140, 141, 142, 143, 144, 145, 146, 147, 148, 149, 150, 151, 152, 153, 154, 155, 156, 157, 158, 159, 160, 161, 162, 163, 164, 165, 166, 167, 168, 169, 170, 171, 172, 173, 174, 175, 176, 177, 178, 179, 180, 181, 182, 183, 184, 185, 186, 187, 188, 189, 190, 191, 192, 193, 194, 195, 196, 197, 198, 199, 200, 201, 202, 203, 204, 205, 206, 207, 208, 209, 210, 211, 212, 213, 214, 215, 216, 217, 218, 219, 220, 221, 222, 223, 224, 225, 226, 227, 228, 229, 230, 231, 232, 233, 234, 235, 236, 237, 238, 239, 240, 241, 242, 243, 244, 245, 246, 247, 248, 249, 250, 251, 252, 253, 254, 255, 256, 257, 258, 259, 260, 261, 262, 263, 264],
      "AcquisitionTime": ["140644.495000", "140645.495000", "140646.495000", "140647.495000", "140648.495000", "140649.495000", "140650.495000", "140651.495000", "140652.495000", "140653.495000", "140654.495000", "140655.495000", "140656.495000", "140657.495000", "140658.495000", "140659.495000", "140700.495000", "140701.495000", "140702.495000", "140703.495000", "140704.495000", "140705.495000", "140706.495000", "140707.495000", "140708.495000", "140709.495000", "140710.495000", "140711.495000", "140712.495000", "140713.495000", "140714.495000", "140715.495000", "140716.495000", "140717.495000", "140718.495000", "140719.495000", "140720.495000", "140721.495000", "140722.495000", "140723.495000", "140724.495000", "140725.495000", "140726.495000", "140727.495000", "140728.495000", "140729.495000", "140730.495000", "140731.495000", "140732.495000", "140733.495000", "140734.495000", "140735.495000", "140736.495000", "140737.495000", "140738.495000", "140739.495000", "140740.495000", "140741.495000", "140742.495000", "140743.495000", "140744.495000", "140745.495000", "140746.495000", "140747.495000", "140748.495000", "140749.495000", "140750.495000", "140751.495000", "140752.495000", "140753.495000", "140754.495000", "140755.495000", "140756.495000", "140757.495000", "140758.495000", "140759.495000", "140800.495000", "140801.495000", "140802.495000", "140803.495000", "140804.495000", "140805.495000", "140806.495000", "140807.495000", "140808.495000", "140809.495000", "140810.495000", "140811.495000", "140812.495000", "140813.495000", "140814.495000", "140815.495000", "140816.495000", "140817.495000", "140818.495000", "140819.495000", "140820.495000", "140821.495000", "140822.495000", "140823.495000", "140824.495000", "140825.495000", "140826.495000", "140827.495000", "140828.495000", "140829.495000", "140830.495000", "140831.495000", "140832.495000", "140833.495000", "140834.495000", "140835.495000", "140836.495000", "140837.495000", "140838.495000", "140839.495000", "140840.495000", "140841.495000", "140842.495000", "140843.495000", "140844.495000", "140845.495000", "140846.495000", "140847.495000", "140848.495000", "140849.495000", "140850.495000", "140851.495000", "140852.495000", "140853.495000", "140854.495000", "140855.495000", "140856.495000", "140857.495000", "140858.495000", "140859.495000", "140900.495000", "140901.495000", "140902.495000", "140903.495000", "140904.495000", "140905.495000", "140906.495000", "140907.495000", "140908.495000", "140909.495000", "140910.495000", "140911.495000", "140912.495000", "140913.495000", "140914.495000", "140915.495000", "140916.495000", "140917.495000", "140918.495000", "140919.495000", "140920.495000", "140921.495000", "140922.495000", "140923.495000", "140924.495000", "140925.495000", "140926.495000", "140927.495000", "140928.495000", "140929.495000", "140930.495000", "140931.495000", "140932.495000", "140933.495000", "140934.495000", "140935.495000", "140936.495000", "140937.495000", "140938.495000", "140939.495000", "140940.495000", "140941.495000", "140942.495000", "140943.495000", "140944.495000", "140945.495000", "140946.495000", "140947.495000", "140948.495000", "140949.495000", "140950.495000", "140951.495000", "140952.495000", "140953.495000", "140954.495000", "140955.495000", "140956.495000", "140957.495000", "140958.495000", "140959.495000", "141000.495000", "141001.495000", "141002.495000", "141003.495000", "141004.495000", "141005.495000", "141006.495000", "141007.495000", "141008.495000", "141009.495000", "141010.495000", "141011.495000", "141012.495000", "141013.495000", "141014.495000", "141015.495000", "141016.495000", "141017.495000", "141018.495000", "141019.495000", "141020.495000", "141021.495000", "141022.495000", "141023.495000", "141024.495000", "141025.495000", "141026.495000", "141027.495000", "141028.495000", "141029.495000", "141030.495000", "141031.495000", "141032.495000", "141033.495000", "141034.495000", "141035.495000", "141036.495000", "141037.495000", "141038.495000", "141039.495000", "141040.495000", "141041.495000", "141042.495000", "141043.495000", "141044.495000", "141045.495000", "141046.495000", "141047.495000", "141048.495000", "141049.495000", "141050.495000", "141051.495000", "141052.495000", "141053.495000", "141054.495000", "141055.495000", "141056.495000", "141057.495000", "141058.495000", "141059.495000", "141100.495000", "141101.495000", "141102.495000", "141103.495000", "141104.495000", "141105.495000", "141106.495000", "141107.495000"],
      "ContentTime": ["140744.948000", "140744.952000", "140744.955000", "140744.958000", "140744.961000", "140744.964000", "140749.922000", "140749.925000", "140749.928000", "140749.931000", "140749.934000", "140749.947000", "140749.949000", "140754.922000", "140754.925000", "140754.928000", "140754.931000", "140754.934000", "140754.936000", "140754.939000", "140759.923000", "140759.926000", "140759.929000", "140759.932000", "140759.935000", "140759.937000", "140759.940000", "140804.922000", "140804.925000", "140804.928000", "140804.931000", "140804.933000", "140804.936000", "140804.939000", "140804.942000", "140809.922000", "140809.925000", "140809.928000", "140809.931000", "140809.934000", "140809.938000", "140814.923000", "140814.933000", "140814.936000", "140814.939000", "140814.942000", "140814.945000", "140814.948000", "140819.922000", "140819.925000", "140819.928000", "140819.931000", "140819.934000", "140819.937000", "140819.951000", "140824.922000", "140824.925000", "140824.928000", "140824.931000", "140824.934000", "140824.937000", "140824.940000", "140824.942000", "140829.922000", "140829.925000", "140829.928000", "140829.930000", "140829.933000", "140829.936000", "140829.939000", "140834.923000", "140834.926000", "140834.929000", "140834.931000", "140834.934000", "140834.937000", "140834.940000", "140839.922000", "140839.925000", "140839.927000", "140839.931000", "140839.933000", "140839.936000", "140839.939000", "140844.922000", "140844.943000", "140844.954000", "140844.957000", "140844.959000", "140844.962000", "140844.965000", "140849.922000", "140849.925000", "140849.928000", "140849.931000", "140849.933000", "140849.936000", "140849.939000", "140854.922000", "140854.925000", "140854.928000", "140854.930000", "140854.933000", "140854.936000", "140854.939000", "140859.922000", "140859.925000", "140859.928000", "140859.931000", "140859.934000", "140859.936000", "140859.939000", "140904.922000", "140904.925000", "140904.928000", "140904.930000", "140904.933000", "140904.936000", "140904.939000", "140909.923000", "140909.926000", "140909.929000", "140909.932000", "140909.935000", "140909.937000", "140909.940000", "140914.922000", "140914.925000", "140914.928000", "140914.931000", "140914.934000", "140914.936000", "140914.939000", "140919.922000", "140919.925000", "140919.928000", "140919.931000", "140919.934000", "140919.936000", "140919.940000", "140924.922000", "140924.925000", "140924.928000", "140924.931000", "140924.934000", "140924.937000", "140924.939000", "140929.922000", "140929.925000", "140929.928000", "140929.931000", "140929.934000", "140929.937000", "140929.939000", "140934.922000", "140934.925000", "140934.928000", "140934.931000", "140934.933000", "140934.936000", "140934.939000", "140939.922000", "140939.925000", "140939.928000", "140939.931000", "140939.933000", "140939.936000", "140939.939000", "140944.923000", "140944.926000", "140944.928000", "140944.931000", "140944.934000", "140944.937000", "140944.940000", "140949.922000", "140949.925000", "140949.928000", "140949.931000", "140949.933000", "140949.945000", "140949.948000", "140954.922000", "140954.925000", "140954.928000", "140954.931000", "140954.934000", "140954.936000", "140954.939000", "140959.922000", "140959.925000", "140959.928000", "140959.931000", "140959.934000", "141004.922000", "141004.925000", "141004.928000", "141004.931000", "141004.934000", "141009.922000", "141009.925000", "141009.928000", "141009.931000", "141009.933000", "141014.922000", "141014.925000", "141014.928000", "141014.931000", "141014.933000", "141019.923000", "141019.926000", "141019.929000", "141019.932000", "141019.935000", "141024.922000", "141024.925000", "141024.928000", "141024.931000", "141024.933000", "141029.922000", "141029.925000", "141029.928000", "141029.931000", "141029.934000", "141034.922000", "141034.925000", "141034.928000", "141034.930000", "141034.933000", "141039.922000", "141039.925000", "141039.928000", "141039.931000", "141039.933000", "141044.922000", "141044.925000", "141044.928000", "141044.931000", "141044.934000", "141049.922000", "141049.925000", "141049.928000", "141049.931000", "141049.933000", "141054.923000", "141054.926000", "141054.929000", "141054.932000", "141054.935000", "141059.922000", "141059.925000", "141059.928000", "141059.931000", "141059.933000", "141104.922000", "141104.925000", "141104.928000", "141104.931000", "141104.934000", "141109.303000", "141109.307000", "141109.309000", "141109.312000", "141109.315000"],
      "InstanceCreationTime": ["140744.948000", "140744.952000", "140744.955000", "140744.958000", "140744.961000", "140744.964000", "140749.922000", "140749.925000", "140749.928000", "140749.931000", "140749.934000", "140749.947000", "140749.949000", "140754.922000", "140754.925000", "140754.928000", "140754.931000", "140754.934000", "140754.936000", "140754.939000", "140759.923000", "140759.926000", "140759.929000", "140759.932000", "140759.935000", "140759.937000", "140759.940000", "140804.922000", "140804.925000", "140804.928000", "140804.931000", "140804.933000", "140804.936000", "140804.939000", "140804.942000", "140809.922000", "140809.925000", "140809.928000", "140809.931000", "140809.934000", "140809.938000", "140814.923000", "140814.933000", "140814.936000", "140814.939000", "140814.942000", "140814.945000", "140814.948000", "140819.922000", "140819.925000", "140819.928000", "140819.931000", "140819.934000", "140819.937000", "140819.951000", "140824.922000", "140824.925000", "140824.928000", "140824.931000", "140824.934000", "140824.937000", "140824.940000", "140824.942000", "140829.922000", "140829.925000", "140829.928000", "140829.930000", "140829.933000", "140829.936000", "140829.939000", "140834.923000", "140834.926000", "140834.929000", "140834.931000", "140834.934000", "140834.937000", "140834.940000", "140839.922000", "140839.925000", "140839.927000", "140839.931000", "140839.933000", "140839.936000", "140839.939000", "140844.922000", "140844.943000", "140844.954000", "140844.957000", "140844.959000", "140844.962000", "140844.965000", "140849.922000", "140849.925000", "140849.928000", "140849.931000", "140849.933000", "140849.936000", "140849.939000", "140854.922000", "140854.925000", "140854.928000", "140854.930000", "140854.933000", "140854.936000", "140854.939000", "140859.922000", "140859.925000", "140859.928000", "140859.931000", "140859.934000", "140859.936000", "140859.939000", "140904.922000", "140904.925000", "140904.928000", "140904.930000", "140904.933000", "140904.936000", "140904.939000", "140909.923000", "140909.926000", "140909.929000", "140909.932000", "140909.935000", "140909.937000", "140909.940000", "140914.922000", "140914.925000", "140914.928000", "140914.931000", "140914.934000", "140914.936000", "140914.939000", "140919.922000", "140919.925000", "140919.928000", "140919.931000", "140919.934000", "140919.936000", "140919.940000", "140924.922000", "140924.925000", "140924.928000", "140924.931000", "140924.934000", "140924.937000", "140924.939000", "140929.922000", "140929.925000", "140929.928000", "140929.931000", "140929.934000", "140929.937000", "140929.939000", "140934.922000", "140934.925000", "140934.928000", "140934.931000", "140934.933000", "140934.936000", "140934.939000", "140939.922000", "140939.925000", "140939.928000", "140939.931000", "140939.933000", "140939.936000", "140939.939000", "140944.923000", "140944.926000", "140944.928000", "140944.931000", "140944.934000", "140944.937000", "140944.940000", "140949.922000", "140949.925000", "140949.928000", "140949.931000", "140949.933000", "140949.945000", "140949.948000", "140954.922000", "140954.925000", "140954.928000", "140954.931000", "140954.934000", "140954.936000", "140954.939000", "140959.922000", "140959.925000", "140959.928000", "140959.931000", "140959.934000", "141004.922000", "141004.925000", "141004.928000", "141004.931000", "141004.934000", "141009.922000", "141009.925000", "141009.928000", "141009.931000", "141009.933000", "141014.922000", "141014.925000", "141014.928000", "141014.931000", "141014.933000", "141019.923000", "141019.926000", "141019.929000", "141019.932000", "141019.935000", "141024.922000", "141024.925000", "141024.928000", "141024.931000", "141024.933000", "141029.922000", "141029.925000", "141029.928000", "141029.931000", "141029.934000", "141034.922000", "141034.925000", "141034.928000", "141034.930000", "141034.933000", "141039.922000", "141039.925000", "141039.928000", "141039.931000", "141039.933000", "141044.922000", "141044.925000", "141044.928000", "141044.931000", "141044.934000", "141049.922000", "141049.925000", "141049.928000", "141049.931000", "141049.933000", "141054.923000", "141054.926000", "141054.929000", "141054.932000", "141054.935000", "141059.922000", "141059.925000", "141059.928000", "141059.931000", "141059.933000", "141104.922000", "141104.925000", "141104.928000", "141104.931000", "141104.934000", "141109.303000", "141109.307000", "141109.309000", "141109.312000", "141109.315000"],
      "InstanceNumber": [1, 2, 3, 4, 5, 6, 7, 8, 9, 10, 11, 12, 13, 14, 15, 16, 17, 18, 19, 20, 21, 22, 23, 24, 25, 26, 27, 28, 29, 30, 31, 32, 33, 34, 35, 36, 37, 38, 39, 40, 41, 42, 43, 44, 45, 46, 47, 48, 49, 50, 51, 52, 53, 54, 55, 56, 57, 58, 59, 60, 61, 62, 63, 64, 65, 66, 67, 68, 69, 70, 71, 72, 73, 74, 75, 76, 77, 78, 79, 80, 81, 82, 83, 84, 85, 86, 87, 88, 89, 90, 91, 92, 93, 94, 95, 96, 97, 98, 99, 100, 101, 102, 103, 104, 105, 106, 107, 108, 109, 110, 111, 112, 113, 114, 115, 116, 117, 118, 119, 120, 121, 122, 123, 124, 125, 126, 127, 128, 129, 130, 131, 132, 133, 134, 135, 136, 137, 138, 139, 140, 141, 142, 143, 144, 145, 146, 147, 148, 149, 150, 151, 152, 153, 154, 155, 156, 157, 158, 159, 160, 161, 162, 163, 164, 165, 166, 167, 168, 169, 170, 171, 172, 173, 174, 175, 176, 177, 178, 179, 180, 181, 182, 183, 184, 185, 186, 187, 188, 189, 190, 191, 192, 193, 194, 195, 196, 197, 198, 199, 200, 201, 202, 203, 204, 205, 206, 207, 208, 209, 210, 211, 212, 213, 214, 215, 216, 217, 218, 219, 220, 221, 222, 223, 224, 225, 226, 227, 228, 229, 230, 231, 232, 233, 234, 235, 236, 237, 238, 239, 240, 241, 242, 243, 244, 245, 246, 247, 248, 249, 250, 251, 252, 253, 254, 255, 256, 257, 258, 259, 260, 261, 262, 263, 264],
      "LargestImagePixelValue": [30788, 29268, 29064, 28679, 28837, 28736, 28797, 28918, 28552, 28839, 29015, 28905, 28595, 29032, 28900, 28976, 28732, 28674, 28678, 28662, 28888, 28758, 28992, 28544, 28593, 28812, 28800, 28956, 28832, 28653, 29105, 28899, 28653, 28522, 28502, 28867, 29124, 28850, 28642, 28811, 28812, 28804, 28773, 28533, 28876, 29067, 28824, 28846, 28797, 28727, 28902, 28781, 28461, 28867, 28706, 28744, 28743, 28802, 28551, 28853, 29008, 28963, 28831, 29009, 28678, 28549, 29082, 28966, 28718, 28739, 28799, 28991, 28690, 28852, 28692, 28736, 28853, 28905, 28544, 28853, 28634, 28753, 28733, 28799, 29376, 28534, 29028, 28821, 28680, 28718, 28714, 28628, 28875, 28668, 28708, 28848, 28869, 28670, 28663, 28670, 28940, 28582, 28644, 28801, 28906, 28494, 28687, 28800, 28510, 28652, 29086, 28858, 28870, 28503, 28941, 28838, 28795, 28632, 28891, 28986, 28851, 29134, 29185, 28600, 28967, 28708, 28470, 28948, 28804, 28773, 28722, 28884, 28864, 28785, 28667, 28846, 28967, 28750, 28826, 28846, 28881, 28944, 28816, 28713, 28723, 28569, 28849, 28476, 28837, 29203, 28800, 28935, 28354, 28686, 28676, 28857, 28483, 28911, 28861, 28767, 28651, 28704, 28677, 28446, 28725, 28969, 28704, 28450, 29127, 28647, 28858, 28788, 28647, 28583, 28615, 28504, 28755, 28821, 29111, 28938, 28774, 28916, 28809, 28622, 29065, 28584, 28867, 28981, 28459, 28737, 28963, 28888, 28937, 28583, 29038, 29111, 29006, 28649, 29037, 29155, 29071, 29090, 28909, 28630, 28602, 28598, 29144, 28454, 28766, 28878, 28904, 29132, 29125, 28848, 29176, 29086, 28799, 28851, 28659, 28780, 28712, 28763, 28440, 28922, 28865, 28789, 29233, 28764, 28688, 29042, 28503, 28492, 28735, 28866, 28866, 29389, 28646, 29190, 29157, 28656, 29137, 28904, 28706, 28805, 29366, 28991, 28894, 29115, 28961, 28644, 28545, 29147, 28936, 29153, 28978, 28472, 28759, 28473, 28692, 28862, 28533, 28745, 29048, 29049],
      "WindowCenter": [9543.0, 9482.0, 9478.0, 9480.0, 9486.0, 9485.0, 9492.0, 9493.0, 9478.0, 9475.0, 9487.0, 9465.0, 9449.0, 9459.0, 9462.0, 9453.0, 9445.0, 9446.0, 9448.0, 9444.0, 9437.0, 9437.0, 9444.0, 9422.0, 9428.0, 9444.0, 9446.0, 9446.0, 9454.0, 9462.0, 9459.0, 9445.0, 9444.0, 9432.0, 9427.0, 9427.0, 9441.0, 9435.0, 9444.0, 9452.0, 9453.0, 9446.0, 9452.0, 9447.0, 9453.0, 9457.0, 9451.0, 9453.0, 9445.0, 9450.0, 9452.0, 9451.0, 9438.0, 9443.0, 9446.0, 9443.0, 9441.0, 9443.0, 9437.0, 9441.0, 9449.0, 9450.0, 9435.0, 9439.0, 9435.0, 9421.0, 9430.0, 9439.0, 9441.0, 9434.0, 9441.0, 9449.0, 9441.0, 9434.0, 9442.0, 9433.0, 9425.0, 9432.0, 9419.0, 9424.0, 9426.0, 9434.0, 9433.0, 9433.0, 9447.0, 9430.0, 9446.0, 9434.0, 9443.0, 9434.0, 9425.0, 9427.0, 9423.0, 9423.0, 9431.0, 9433.0, 9434.0, 9434.0, 9435.0, 9425.0, 9423.0, 9420.0, 9416.0, 9420.0, 9421.0, 9420.0, 9423.0, 9424.0, 9427.0, 9424.0, 9422.0, 9423.0, 9426.0, 9417.0, 9424.0, 9432.0, 9418.0, 9416.0, 9416.0, 9424.0, 9415.0, 9421.0, 9423.0, 9411.0, 9422.0, 9426.0, 9444.0, 9451.0, 9452.0, 9453.0, 9447.0, 9436.0, 9426.0, 9427.0, 9418.0, 9416.0, 9424.0, 9419.0, 9424.0, 9418.0, 9416.0, 9409.0, 9417.0, 9425.0, 9426.0, 9428.0, 9436.0, 9422.0, 9419.0, 9424.0, 9415.0, 9407.0, 9409.0, 9414.0, 9414.0, 9423.0, 9411.0, 9415.0, 9418.0, 9422.0, 9416.0, 9431.0, 9433.0, 9428.0, 9435.0, 9442.0, 9426.0, 9418.0, 9432.0, 9425.0, 9418.0, 9425.0, 9424.0, 9411.0, 9411.0, 9405.0, 9408.0, 9406.0, 9406.0, 9399.0, 9414.0, 9433.0, 9442.0, 9454.0, 9467.0, 9450.0, 9445.0, 9435.0, 9423.0, 9426.0, 9423.0, 9424.0, 9419.0, 9409.0, 9408.0, 9408.0, 9414.0, 9393.0, 9397.0, 9405.0, 9398.0, 9398.0, 9401.0, 9393.0, 9392.0, 9400.0, 9414.0, 9418.0, 9425.0, 9434.0, 9426.0, 9432.0, 9433.0, 9418.0, 9416.0, 9416.0, 9418.0, 9408.0, 9415.0, 9432.0, 9443.0, 9450.0, 9446.0, 9447.0, 9428.0, 9418.0, 9425.0, 9417.0, 9416.0, 9432.0, 9421.0, 9419.0, 9434.0, 9425.0, 9417.0, 9437.0, 9425.0, 9423.0, 9423.0, 9408.0, 9422.0, 9441.0, 9452.0, 9462.0, 9460.0, 9459.0, 9437.0, 9434.0, 9435.0, 9419.0, 9418.0, 9432.0, 9417.0, 9423.0, 9432.0, 9419.0, 9419.0, 9420.0, 9421.0, 9418.0, 9411.0, 9418.0, 9416.0, 9415.0],
      "WindowWidth": [20336.0, 20182.0, 20158.0, 20159.0, 20164.0, 20162.0, 20175.0, 20181.0, 20148.0, 20138.0, 20158.0, 20114.0, 20081.0, 20096.0, 20105.0, 20085.0, 20068.0, 20069.0, 20076.0, 20065.0, 20051.0, 20051.0, 20064.0, 20024.0, 20034.0, 20067.0, 20072.0, 20073.0, 20090.0, 20108.0, 20099.0, 20070.0, 20069.0, 20046.0, 20029.0, 20029.0, 20057.0, 20048.0, 20066.0, 20084.0, 20088.0, 20073.0, 20083.0, 20079.0, 20090.0, 20093.0, 20083.0, 20091.0, 20071.0, 20077.0, 20085.0, 20083.0, 20057.0, 20067.0, 20075.0, 20064.0, 20058.0, 20068.0, 20054.0, 20058.0, 20075.0, 20077.0, 20048.0, 20052.0, 20048.0, 20020.0, 20034.0, 20053.0, 20059.0, 20045.0, 20059.0, 20078.0, 20060.0, 20047.0, 20063.0, 20041.0, 20026.0, 20042.0, 20018.0, 20024.0, 20029.0, 20050.0, 20045.0, 20045.0, 20073.0, 20044.0, 20067.0, 20048.0, 20068.0, 20045.0, 20026.0, 20034.0, 20020.0, 20019.0, 20039.0, 20044.0, 20044.0, 20046.0, 20049.0, 20024.0, 20019.0, 20019.0, 20006.0, 20011.0, 20015.0, 20020.0, 20021.0, 20021.0, 20033.0, 20021.0, 20017.0, 20019.0, 20029.0, 20009.0, 20021.0, 20040.0, 20011.0, 20005.0, 20007.0, 20024.0, 20004.0, 20014.0, 20019.0, 19999.0, 20016.0, 20027.0, 20069.0, 20083.0, 20086.0, 20089.0, 20077.0, 20050.0, 20028.0, 20031.0, 20009.0, 20005.0, 20025.0, 20016.0, 20023.0, 20015.0, 20006.0, 19994.0, 20011.0, 20027.0, 20029.0, 20035.0, 20053.0, 20025.0, 20015.0, 20022.0, 20002.0, 19985.0, 19995.0, 20000.0, 20000.0, 20021.0, 19999.0, 20004.0, 20017.0, 20018.0, 20007.0, 20037.0, 20043.0, 20035.0, 20048.0, 20063.0, 20028.0, 20010.0, 20039.0, 20024.0, 20013.0, 20029.0, 20025.0, 20000.0, 20001.0, 19990.0, 19990.0, 19985.0, 19985.0, 19969.0, 19998.0, 20044.0, 20061.0, 20089.0, 20116.0, 20086.0, 20068.0, 20047.0, 20027.0, 20026.0, 20020.0, 20022.0, 20017.0, 19994.0, 19989.0, 19989.0, 19998.0, 19957.0, 19961.0, 19980.0, 19967.0, 19964.0, 19978.0, 19957.0, 19956.0, 19975.0, 20000.0, 20011.0, 20025.0, 20048.0, 20030.0, 20038.0, 20043.0, 20011.0, 20005.0, 20007.0, 20012.0, 19990.0, 20004.0, 20040.0, 20066.0, 20079.0, 20074.0, 20078.0, 20033.0, 20011.0, 20027.0, 20010.0, 20008.0, 20041.0, 20023.0, 20018.0, 20048.0, 20028.0, 20010.0, 20048.0, 20026.0, 20017.0, 20020.0, 19990.0, 20015.0, 20061.0, 20085.0, 20108.0, 20104.0, 20099.0, 20055.0, 20046.0, 20046.0, 20014.0, 20013.0, 20037.0, 20008.0, 20018.0, 20038.0, 20013.0, 20014.0, 20017.0, 20018.0, 20009.0, 19997.0, 20011.0, 20003.0, 20001.0]
    },
    "slices": {}
  }
}