{
  "AcquisitionMatrixPE": 104,
  "AcquisitionNumber": 1,
  "AcquisitionTime": "14:01:47.492500",
  "BandwidthPerPixelPhaseEncode": 16.578,
  "BaseResolution": 104,
  "BodyPartExamined": "BRAIN",
  "ConsistencyInfo": "N4_VE11C_LATEST_20160120",
  "ConversionSoftware": "dcm2niix",
  "ConversionSoftwareVersion": "v1.0.20190410  GCC6.3.0",
  "DerivedVendorReportedEchoSpacing": 0.000580009,
  "DeviceSerialNumber": "166018",
  "DwellTime": 2.1e-06,
  "EchoTime": 0.037,
  "EchoTrainLength": 104,
  "EffectiveEchoSpacing": 0.000580009,
  "FlipAngle": 68,
  "ImageComments": "Unaliased_MB6_PE3_LB",
  "ImageOrientationPatientDICOM": [0.998959, -0.00538936, 0.0452903, 0.00958961, 0.995616, -0.0930419],
  "ImageType": [
    "ORIGINAL",
    "PRIMARY",
    "M",
    "MB",
    "ND",
    "MOSAIC"
],
  "ImagingFrequency": 123.191,
  "InPlanePhaseEncodingDirectionDICOM": "COL",
  "InstitutionAddress": "Washington_Place_6_NYC_NYC_US_10003",
  "InstitutionName": "NYU_-_CBI",
  "InstitutionalDepartmentName": "Department",
  "MRAcquisitionType": "2D",
  "MagneticFieldStrength": 3,
  "Manufacturer": "Siemens",
  "ManufacturersModelName": "Prisma",
  "Modality": "MR",
  "MultibandAccelerationFactor": 6,
  "PartialFourier": 1,
  "PatientPosition": "HFS",
  "PercentPhaseFOV": 100,
  "PhaseEncodingDirection": "j",
  "PhaseEncodingSteps": 104,
  "PhaseResolution": 1,
  "PixelBandwidth": 2290,
  "ProcedureStepDescription": "Investigators_Winawer",
  "ProtocolName": "task-sfprescaled_cmrr_mbepi_s6_2mm_66sl_PA_TR1.0",
  "PulseSequenceDetails": "%CustomerSeq%_cmrr_mbep2d_bold",
  "ReceiveCoilActiveElements": "HC1-7",
  "ReceiveCoilName": "HeadNeck_64",
  "ReconMatrixPE": 104,
  "RepetitionTime": 1,
  "SAR": 0.069977,
  "ScanOptions": "FS",
  "ScanningSequence": "EP",
  "SequenceName": "epfid2d1_104",
  "SequenceVariant": "SK_SS",
  "SeriesDescription": "task-sfprescaled_cmrr_mbepi_s6_2mm_66sl_PA_TR1.0",
  "SeriesNumber": 14,
  "ShimSetting": [290, -12622, -8536, 412, 11, 26, 145, 1],
  "SliceThickness": 2,
  "SliceTiming": [0, 0.535, 0.09, 0.625, 0.18, 0.7125, 0.2675, 0.8025, 0.3575, 0.8925, 0.445, 0, 0.535, 0.09, 0.625, 0.18, 0.7125, 0.2675, 0.8025, 0.3575, 0.8925, 0.445, 0, 0.535, 0.09, 0.625, 0.18, 0.7125, 0.2675, 0.8025, 0.3575, 0.8925, 0.445, 0, 0.535, 0.09, 0.625, 0.18, 0.7125, 0.2675, 0.8025, 0.3575, 0.8925, 0.445, 0, 0.535, 0.09, 0.625, 0.18, 0.7125, 0.2675, 0.8025, 0.3575, 0.8925, 0.445, 0, 0.535, 0.09, 0.625, 0.18, 0.7125, 0.2675, 0.8025, 0.3575, 0.8925, 0.445],
  "SoftwareVersions": "syngo_MR_E11",
  "SpacingBetweenSlices": 2,
  "StationName": "AWP166018",
  "TaskName": "sfprescaled",
  "TotalReadoutTime": 0.0597409,
  "TxRefAmp": 228.882,
  "WipMemBlock": "c7edefe1-41bb-4e87-b9e0-9cf432de8593||Sequence: R016 ve11c/master r/8780670; Nov 27 2017 15:05:12 by eja",
  "dcmmeta_affine": [
    [-1.9979186058044434, 0.019179219380021095, 0.08918056637048721, 105.54573822021484],
    [0.010778723284602165, 1.9912320375442505, -0.1867588758468628, -79.39433288574219],
    [0.0905805453658104, 0.18608388304710388, 1.9892631769180298, -66.26029968261719],
    [0.0, 0.0, 0.0, 1.0]
],
  "dcmmeta_reorient_transform": [
    [0.0, -1.0, 0.0, 103.0],
    [1.0, 0.0, 0.0, 0.0],
    [0.0, 0.0, 1.0, 0.0],
    [0.0, 0.0, 0.0, 1.0]
],
  "dcmmeta_shape": [104, 104, 66, 264],
  "dcmmeta_slice_dim": 2,
  "dcmmeta_version": 0.6,
  "global": {
    "const": {
      "AccessionNumber": "juLLetfq",
  "NumberOfVolumes": 264,
      "AcquisitionMatrix": [104, 0, 0, 104],
      "AngioFlag": "N",
      "BitsAllocated": 16,
      "BitsStored": 16,
      "BodyPartExamined": "BRAIN",
      "Columns": 936,
      "EchoNumbers": 1,
      "EchoTime": 37.0,
      "EchoTrainLength": 104,
      "FlipAngle": 68.0,
      "HighBit": 15,
      "ImageOrientationPatient": [0.99895933151222, -0.0053893617229, 0.04529027229865, 0.00958960937728, 0.99561600835794, -0.0930419437318],
      "ImagePositionPatient": [-946.6339183146, -949.57113348364, -7.3642652504894],
      "ImageType": [
        "ORIGINAL",
        "PRIMARY",
        "M",
        "MB",
        "ND",
        "MOSAIC"
],
      "ImagedNucleus": "1H",
      "ImagingFrequency": 123.191066,
      "InPlanePhaseEncodingDirection": "COL",
      "MRAcquisitionType": "2D",
      "MagneticFieldStrength": 3.0,
      "Manufacturer": "SIEMENS",
      "ManufacturerModelName": "Prisma",
      "Modality": "MR",
      "NumberOfAverages": 1.0,
      "NumberOfPhaseEncodingSteps": 104,
      "PercentPhaseFieldOfView": 100.0,
      "PercentSampling": 100.0,
      "PerformedProcedureStepStartTime": "133403.321000",
      "PhotometricInterpretation": "MONOCHROME2",
      "PixelBandwidth": 2290.0,
      "PixelRepresentation": 0,
      "PixelSpacing": [2.0, 2.0],
      "ProtocolName": "task-sfprescaled_cmrr_mbepi_s6_2mm_66sl_PA_TR1.0",
      "RepetitionTime": 1000.0,
      "Rows": 936,
      "SAR": 0.06997703584336,
      "SamplesPerPixel": 1,
      "ScanOptions": "FS",
      "ScanningSequence": "EP",
      "SequenceName": "epfid2d1_104",
      "SequenceVariant": [
        "SK",
        "SS"
],
      "SeriesDescription": "task-sfprescaled_cmrr_mbepi_s6_2mm_66sl_PA_TR1.0",
      "SeriesNumber": 14,
      "SeriesTime": "140238.040000",
      "SliceLocation": -53.784471009778,
      "SliceThickness": 2.0,
      "SmallestImagePixelValue": 0,
      "SoftwareVersions": "syngo MR E11",
      "SpacingBetweenSlices": 2.0000000443055,
      "SpecificCharacterSet": "ISO_IR 100",
      "StudyID": "1",
      "StudyTime": "133403.273000",
      "TransmitCoilName": "Body",
      "VariableFlipAngleFlag": "N",
      "WindowCenterWidthExplanation": "Algo1",
      "dBdt": 0.0},
    "slices": {}
  },
  "time": {
    "samples": {
      "AcquisitionNumber": [1, 2, 3, 4, 5, 6, 7, 8, 9, 10, 11, 12, 13, 14, 15, 16, 17, 18, 19, 20, 21, 22, 23, 24, 25, 26, 27, 28, 29, 30, 31, 32, 33, 34, 35, 36, 37, 38, 39, 40, 41, 42, 43, 44, 45, 46, 47, 48, 49, 50, 51, 52, 53, 54, 55, 56, 57, 58, 59, 60, 61, 62, 63, 64, 65, 66, 67, 68, 69, 70, 71, 72, 73, 74, 75, 76, 77, 78, 79, 80, 81, 82, 83, 84, 85, 86, 87, 88, 89, 90, 91, 92, 93, 94, 95, 96, 97, 98, 99, 100, 101, 102, 103, 104, 105, 106, 107, 108, 109, 110, 111, 112, 113, 114, 115, 116, 117, 118, 119, 120, 121, 122, 123, 124, 125, 126, 127, 128, 129, 130, 131, 132, 133, 134, 135, 136, 137, 138, 139, 140, 141, 142, 143, 144, 145, 146, 147, 148, 149, 150, 151, 152, 153, 154, 155, 156, 157, 158, 159, 160, 161, 162, 163, 164, 165, 166, 167, 168, 169, 170, 171, 172, 173, 174, 175, 176, 177, 178, 179, 180, 181, 182, 183, 184, 185, 186, 187, 188, 189, 190, 191, 192, 193, 194, 195, 196, 197, 198, 199, 200, 201, 202, 203, 204, 205, 206, 207, 208, 209, 210, 211, 212, 213, 214, 215, 216, 217, 218, 219, 220, 221, 222, 223, 224, 225, 226, 227, 228, 229, 230, 231, 232, 233, 234, 235, 236, 237, 238, 239, 240, 241, 242, 243, 244, 245, 246, 247, 248, 249, 250, 251, 252, 253, 254, 255, 256, 257, 258, 259, 260, 261, 262, 263, 264],
      "AcquisitionTime": ["140147.492500", "140148.492500", "140149.492500", "140150.492500", "140151.492500", "140152.492500", "140153.492500", "140154.492500", "140155.492500", "140156.492500", "140157.492500", "140158.492500", "140159.492500", "140200.492500", "140201.492500", "140202.492500", "140203.492500", "140204.492500", "140205.492500", "140206.492500", "140207.492500", "140208.492500", "140209.492500", "140210.492500", "140211.492500", "140212.492500", "140213.492500", "140214.492500", "140215.492500", "140216.492500", "140217.492500", "140218.492500", "140219.492500", "140220.492500", "140221.492500", "140222.492500", "140223.492500", "140224.492500", "140225.492500", "140226.492500", "140227.492500", "140228.492500", "140229.492500", "140230.492500", "140231.492500", "140232.492500", "140233.492500", "140234.492500", "140235.492500", "140236.492500", "140237.492500", "140238.492500", "140239.492500", "140240.492500", "140241.492500", "140242.492500", "140243.492500", "140244.492500", "140245.492500", "140246.492500", "140247.492500", "140248.492500", "140249.492500", "140250.492500", "140251.492500", "140252.492500", "140253.492500", "140254.492500", "140255.492500", "140256.492500", "140257.492500", "140258.492500", "140259.492500", "140300.492500", "140301.492500", "140302.492500", "140303.492500", "140304.492500", "140305.492500", "140306.492500", "140307.492500", "140308.492500", "140309.492500", "140310.492500", "140311.492500", "140312.492500", "140313.492500", "140314.492500", "140315.492500", "140316.492500", "140317.492500", "140318.492500", "140319.492500", "140320.492500", "140321.492500", "140322.492500", "140323.492500", "140324.492500", "140325.492500", "140326.492500", "140327.492500", "140328.492500", "140329.492500", "140330.492500", "140331.492500", "140332.492500", "140333.492500", "140334.492500", "140335.492500", "140336.492500", "140337.492500", "140338.492500", "140339.492500", "140340.492500", "140341.492500", "140342.492500", "140343.492500", "140344.492500", "140345.492500", "140346.492500", "140347.492500", "140348.492500", "140349.492500", "140350.492500", "140351.492500", "140352.492500", "140353.492500", "140354.492500", "140355.492500", "140356.492500", "140357.492500", "140358.492500", "140359.492500", "140400.492500", "140401.492500", "140402.492500", "140403.492500", "140404.492500", "140405.492500", "140406.492500", "140407.492500", "140408.492500", "140409.492500", "140410.492500", "140411.492500", "140412.492500", "140413.492500", "140414.492500", "140415.492500", "140416.492500", "140417.492500", "140418.492500", "140419.492500", "140420.492500", "140421.492500", "140422.492500", "140423.492500", "140424.492500", "140425.492500", "140426.492500", "140427.492500", "140428.492500", "140429.492500", "140430.492500", "140431.492500", "140432.492500", "140433.492500", "140434.492500", "140435.492500", "140436.492500", "140437.492500", "140438.492500", "140439.492500", "140440.492500", "140441.492500", "140442.492500", "140443.492500", "140444.492500", "140445.492500", "140446.492500", "140447.492500", "140448.492500", "140449.492500", "140450.492500", "140451.492500", "140452.492500", "140453.492500", "140454.492500", "140455.492500", "140456.492500", "140457.492500", "140458.492500", "140459.492500", "140500.492500", "140501.492500", "140502.492500", "140503.492500", "140504.492500", "140505.492500", "140506.492500", "140507.492500", "140508.492500", "140509.492500", "140510.492500", "140511.492500", "140512.492500", "140513.492500", "140514.492500", "140515.492500", "140516.492500", "140517.492500", "140518.492500", "140519.492500", "140520.492500", "140521.492500", "140522.492500", "140523.492500", "140524.492500", "140525.492500", "140526.492500", "140527.492500", "140528.492500", "140529.492500", "140530.492500", "140531.492500", "140532.492500", "140533.492500", "140534.492500", "140535.492500", "140536.492500", "140537.492500", "140538.492500", "140539.492500", "140540.492500", "140541.492500", "140542.492500", "140543.492500", "140544.492500", "140545.492500", "140546.492500", "140547.492500", "140548.492500", "140549.492500", "140550.492500", "140551.492500", "140552.492500", "140553.492500", "140554.492500", "140555.492500", "140556.492500", "140557.492500", "140558.492500", "140559.492500", "140600.492500", "140601.492500", "140602.492500", "140603.492500", "140604.492500", "140605.492500", "140606.492500", "140607.492500", "140608.492500", "140609.492500", "140610.492500"],
      "ContentTime": ["140238.042000", "140243.011000", "140243.014000", "140243.021000", "140243.024000", "140243.027000", "140243.030000", "140243.033000", "140248.011000", "140248.014000", "140248.017000", "140248.020000", "140248.023000", "140248.025000", "140248.034000", "140253.011000", "140253.014000", "140253.017000", "140253.020000", "140253.022000", "140253.025000", "140253.028000", "140258.011000", "140258.014000", "140258.017000", "140258.020000", "140258.022000", "140258.025000", "140258.028000", "140303.012000", "140303.015000", "140303.018000", "140303.021000", "140303.023000", "140303.026000", "140303.029000", "140308.011000", "140308.014000", "140308.017000", "140308.019000", "140308.022000", "140308.025000", "140308.028000", "140313.011000", "140313.014000", "140313.017000", "140313.020000", "140313.022000", "140313.025000", "140313.028000", "140318.011000", "140318.014000", "140318.017000", "140318.020000", "140318.022000", "140318.025000", "140318.028000", "140323.011000", "140323.017000", "140323.020000", "140323.023000", "140323.026000", "140323.029000", "140323.031000", "140328.011000", "140328.014000", "140328.017000", "140328.020000", "140328.023000", "140328.025000", "140328.034000", "140333.011000", "140333.014000", "140333.017000", "140333.020000", "140333.023000", "140333.026000", "140333.029000", "140338.012000", "140338.015000", "140338.019000", "140338.022000", "140338.025000", "140338.028000", "140338.031000", "140343.011000", "140343.014000", "140343.017000", "140343.020000", "140343.023000", "140343.025000", "140343.028000", "140343.031000", "140348.011000", "140348.022000", "140348.025000", "140348.027000", "140348.030000", "140348.034000", "140348.036000", "140353.011000", "140353.014000", "140353.017000", "140353.020000", "140353.023000", "140353.025000", "140353.028000", "140358.011000", "140358.014000", "140358.017000", "140358.020000", "140358.023000", "140358.025000", "140358.028000", "140403.011000", "140403.014000", "140403.017000", "140403.020000", "140403.023000", "140403.026000", "140403.029000", "140408.011000", "140408.022000", "140408.025000", "140408.028000", "140408.031000", "140408.034000", "140408.036000", "140413.012000", "140413.015000", "140413.018000", "140413.021000", "140413.024000", "140413.027000", "140413.029000", "140418.011000", "140418.014000", "140418.017000", "140418.020000", "140418.023000", "140418.026000", "140418.029000", "140423.011000", "140423.014000", "140423.017000", "140423.020000", "140423.023000", "140423.026000", "140423.029000", "140428.011000", "140428.014000", "140428.017000", "140428.020000", "140428.022000", "140428.025000", "140428.028000", "140433.011000", "140433.014000", "140433.017000", "140433.020000", "140433.023000", "140433.026000", "140433.029000", "140438.011000", "140438.014000", "140438.017000", "140438.020000", "140438.023000", "140438.026000", "140443.011000", "140443.014000", "140443.017000", "140443.020000", "140443.023000", "140448.012000", "140448.015000", "140448.018000", "140448.021000", "140448.024000", "140453.011000", "140453.014000", "140453.017000", "140453.020000", "140453.023000", "140458.011000", "140458.021000", "140458.024000", "140458.027000", "140458.030000", "140503.011000", "140503.014000", "140503.017000", "140503.020000", "140503.023000", "140508.011000", "140508.014000", "140508.017000", "140508.020000", "140508.023000", "140513.011000", "140513.014000", "140513.017000", "140513.020000", "140513.022000", "140518.011000", "140518.014000", "140518.017000", "140518.020000", "140518.023000", "140523.012000", "140523.015000", "140523.018000", "140523.021000", "140523.024000", "140528.011000", "140528.014000", "140528.017000", "140528.020000", "140528.023000", "140533.011000", "140533.014000", "140533.017000", "140533.020000", "140533.023000", "140538.011000", "140538.014000", "140538.017000", "140538.020000", "140538.023000", "140543.011000", "140543.014000", "140543.017000", "140543.020000", "140543.023000", "140548.011000", "140548.014000", "140548.017000", "140548.020000", "140548.023000", "140553.011000", "140553.014000", "140553.017000", "140553.020000", "140553.023000", "140558.012000", "140558.015000", "140558.018000", "140558.021000", "140558.024000", "140603.011000", "140603.014000", "140603.017000", "140603.020000", "140603.023000", "140608.011000", "140608.014000", "140608.017000", "140608.020000", "140608.023000", "140612.402000", "140612.407000", "140612.410000", "140612.413000", "140612.418000"],
      "InstanceCreationTime": ["140238.042000", "140243.011000", "140243.014000", "140243.021000", "140243.024000", "140243.027000", "140243.030000", "140243.033000", "140248.011000", "140248.014000", "140248.017000", "140248.020000", "140248.023000", "140248.025000", "140248.034000", "140253.011000", "140253.014000", "140253.017000", "140253.020000", "140253.022000", "140253.025000", "140253.028000", "140258.011000", "140258.014000", "140258.017000", "140258.020000", "140258.022000", "140258.025000", "140258.028000", "140303.012000", "140303.015000", "140303.018000", "140303.021000", "140303.023000", "140303.026000", "140303.029000", "140308.011000", "140308.014000", "140308.017000", "140308.019000", "140308.022000", "140308.025000", "140308.028000", "140313.011000", "140313.014000", "140313.017000", "140313.020000", "140313.022000", "140313.025000", "140313.028000", "140318.011000", "140318.014000", "140318.017000", "140318.020000", "140318.022000", "140318.025000", "140318.028000", "140323.011000", "140323.017000", "140323.020000", "140323.023000", "140323.026000", "140323.029000", "140323.031000", "140328.011000", "140328.014000", "140328.017000", "140328.020000", "140328.023000", "140328.025000", "140328.034000", "140333.011000", "140333.014000", "140333.017000", "140333.020000", "140333.023000", "140333.026000", "140333.029000", "140338.012000", "140338.015000", "140338.019000", "140338.022000", "140338.025000", "140338.028000", "140338.031000", "140343.011000", "140343.014000", "140343.017000", "140343.020000", "140343.023000", "140343.025000", "140343.028000", "140343.031000", "140348.011000", "140348.022000", "140348.025000", "140348.027000", "140348.030000", "140348.034000", "140348.036000", "140353.011000", "140353.014000", "140353.017000", "140353.020000", "140353.023000", "140353.025000", "140353.028000", "140358.011000", "140358.014000", "140358.017000", "140358.020000", "140358.023000", "140358.025000", "140358.028000", "140403.011000", "140403.014000", "140403.017000", "140403.020000", "140403.023000", "140403.026000", "140403.029000", "140408.011000", "140408.022000", "140408.025000", "140408.028000", "140408.031000", "140408.034000", "140408.036000", "140413.012000", "140413.015000", "140413.018000", "140413.021000", "140413.024000", "140413.027000", "140413.029000", "140418.011000", "140418.014000", "140418.017000", "140418.020000", "140418.023000", "140418.026000", "140418.029000", "140423.011000", "140423.014000", "140423.017000", "140423.020000", "140423.023000", "140423.026000", "140423.029000", "140428.011000", "140428.014000", "140428.017000", "140428.020000", "140428.022000", "140428.025000", "140428.028000", "140433.011000", "140433.014000", "140433.017000", "140433.020000", "140433.023000", "140433.026000", "140433.029000", "140438.011000", "140438.014000", "140438.017000", "140438.020000", "140438.023000", "140438.026000", "140443.011000", "140443.014000", "140443.017000", "140443.020000", "140443.023000", "140448.012000", "140448.015000", "140448.018000", "140448.021000", "140448.024000", "140453.011000", "140453.014000", "140453.017000", "140453.020000", "140453.023000", "140458.011000", "140458.021000", "140458.024000", "140458.027000", "140458.030000", "140503.011000", "140503.014000", "140503.017000", "140503.020000", "140503.023000", "140508.011000", "140508.014000", "140508.017000", "140508.020000", "140508.023000", "140513.011000", "140513.014000", "140513.017000", "140513.020000", "140513.022000", "140518.011000", "140518.014000", "140518.017000", "140518.020000", "140518.023000", "140523.012000", "140523.015000", "140523.018000", "140523.021000", "140523.024000", "140528.011000", "140528.014000", "140528.017000", "140528.020000", "140528.023000", "140533.011000", "140533.014000", "140533.017000", "140533.020000", "140533.023000", "140538.011000", "140538.014000", "140538.017000", "140538.020000", "140538.023000", "140543.011000", "140543.014000", "140543.017000", "140543.020000", "140543.023000", "140548.011000", "140548.014000", "140548.017000", "140548.020000", "140548.023000", "140553.011000", "140553.014000", "140553.017000", "140553.020000", "140553.023000", "140558.012000", "140558.015000", "140558.018000", "140558.021000", "140558.024000", "140603.011000", "140603.014000", "140603.017000", "140603.020000", "140603.023000", "140608.011000", "140608.014000", "140608.017000", "140608.020000", "140608.023000", "140612.402000", "140612.407000", "140612.410000", "140612.413000", "140612.418000"],
      "InstanceNumber": [1, 2, 3, 4, 5, 6, 7, 8, 9, 10, 11, 12, 13, 14, 15, 16, 17, 18, 19, 20, 21, 22, 23, 24, 25, 26, 27, 28, 29, 30, 31, 32, 33, 34, 35, 36, 37, 38, 39, 40, 41, 42, 43, 44, 45, 46, 47, 48, 49, 50, 51, 52, 53, 54, 55, 56, 57, 58, 59, 60, 61, 62, 63, 64, 65, 66, 67, 68, 69, 70, 71, 72, 73, 74, 75, 76, 77, 78, 79, 80, 81, 82, 83, 84, 85, 86, 87, 88, 89, 90, 91, 92, 93, 94, 95, 96, 97, 98, 99, 100, 101, 102, 103, 104, 105, 106, 107, 108, 109, 110, 111, 112, 113, 114, 115, 116, 117, 118, 119, 120, 121, 122, 123, 124, 125, 126, 127, 128, 129, 130, 131, 132, 133, 134, 135, 136, 137, 138, 139, 140, 141, 142, 143, 144, 145, 146, 147, 148, 149, 150, 151, 152, 153, 154, 155, 156, 157, 158, 159, 160, 161, 162, 163, 164, 165, 166, 167, 168, 169, 170, 171, 172, 173, 174, 175, 176, 177, 178, 179, 180, 181, 182, 183, 184, 185, 186, 187, 188, 189, 190, 191, 192, 193, 194, 195, 196, 197, 198, 199, 200, 201, 202, 203, 204, 205, 206, 207, 208, 209, 210, 211, 212, 213, 214, 215, 216, 217, 218, 219, 220, 221, 222, 223, 224, 225, 226, 227, 228, 229, 230, 231, 232, 233, 234, 235, 236, 237, 238, 239, 240, 241, 242, 243, 244, 245, 246, 247, 248, 249, 250, 251, 252, 253, 254, 255, 256, 257, 258, 259, 260, 261, 262, 263, 264],
      "LargestImagePixelValue": [30941, 29763, 29976, 29234, 28839, 28910, 29098, 28658, 28842, 29629, 29075, 29000, 28742, 29800, 28771, 28687, 29305, 29211, 28744, 28925, 29463, 29057, 28864, 29673, 29435, 28913, 28971, 29390, 28848, 28697, 29443, 28907, 28642, 29309, 28852, 28849, 29734, 28969, 28945, 28768, 28858, 28583, 29039, 28883, 29237, 28989, 29351, 28988, 28677, 28985, 28762, 28721, 29083, 29125, 28762, 29163, 29180, 28985, 28557, 29597, 28844, 28819, 29587, 29208, 28857, 28611, 29557, 29147, 28733, 29800, 29258, 28905, 28756, 29383, 29152, 28682, 29320, 29007, 28833, 28574, 29422, 28777, 28812, 29521, 28897, 28790, 29626, 28954, 28894, 29180, 29205, 28876, 28690, 29129, 28849, 28948, 29264, 28983, 28751, 29218, 29007, 29115, 29032, 29219, 29010, 28642, 28950, 29203, 28954, 28848, 28945, 29203, 28871, 28867, 29316, 28907, 28700, 29247, 28706, 28645, 29419, 28860, 28776, 28844, 28962, 28708, 29350, 29128, 28894, 29055, 28948, 29286, 28941, 28626, 29597, 29155, 28843, 28795, 29321, 28934, 28799, 29548, 28704, 28895, 29792, 28940, 28771, 29650, 28854, 28552, 29530, 29140, 29112, 29109, 29890, 29035, 29493, 29227, 28838, 29219, 29319, 28711, 28903, 29501, 28937, 28915, 29049, 29296, 28958, 28714, 29390, 28755, 28934, 29624, 29023, 28859, 29849, 29356, 28984, 29033, 29821, 29006, 28853, 29215, 29227, 28873, 28816, 29672, 29712, 28802, 28605, 29443, 28845, 28786, 29286, 28736, 28849, 29655, 28852, 28849, 29627, 29189, 29065, 29062, 29474, 28924, 28655, 29507, 29103, 28608, 29168, 29115, 28966, 29296, 29485, 28703, 28917, 30035, 28936, 28873, 29401, 28858, 28725, 29775, 29313, 28908, 29613, 29239, 29066, 29559, 29709, 28653, 28729, 29565, 28794, 28657, 29736, 29129, 28883, 29199, 29106, 28603, 29765, 29513, 28490, 28805, 29081, 29037, 28555, 29240, 29148, 28975, 29169, 29415, 28792, 29140, 29592, 28823, 28879, 29613, 29598, 28786, 28974, 29667],
      "WindowCenter": [9587.0, 9526.0, 9518.0, 9498.0, 9508.0, 9504.0, 9502.0, 9495.0, 9490.0, 9487.0, 9468.0, 9466.0, 9452.0, 9460.0, 9448.0, 9457.0, 9460.0, 9447.0, 9442.0, 9447.0, 9460.0, 9456.0, 9459.0, 9470.0, 9470.0, 9467.0, 9458.0, 9462.0, 9458.0, 9457.0, 9463.0, 9452.0, 9443.0, 9459.0, 9457.0, 9458.0, 9482.0, 9472.0, 9476.0, 9470.0, 9461.0, 9462.0, 9457.0, 9441.0, 9448.0, 9439.0, 9444.0, 9444.0, 9439.0, 9438.0, 9431.0, 9440.0, 9443.0, 9443.0, 9448.0, 9454.0, 9463.0, 9478.0, 9461.0, 9469.0, 9456.0, 9457.0, 9466.0, 9455.0, 9458.0, 9450.0, 9461.0, 9462.0, 9449.0, 9458.0, 9448.0, 9441.0, 9438.0, 9452.0, 9461.0, 9464.0, 9476.0, 9464.0, 9465.0, 9445.0, 9460.0, 9449.0, 9441.0, 9450.0, 9445.0, 9439.0, 9447.0, 9423.0, 9430.0, 9428.0, 9427.0, 9430.0, 9428.0, 9435.0, 9430.0, 9440.0, 9436.0, 9430.0, 9439.0, 9436.0, 9429.0, 9429.0, 9422.0, 9420.0, 9427.0, 9431.0, 9430.0, 9429.0, 9430.0, 9440.0, 9448.0, 9461.0, 9466.0, 9459.0, 9468.0, 9457.0, 9449.0, 9445.0, 9438.0, 9440.0, 9451.0, 9431.0, 9438.0, 9437.0, 9435.0, 9431.0, 9434.0, 9419.0, 9411.0, 9425.0, 9426.0, 9448.0, 9454.0, 9453.0, 9470.0, 9463.0, 9451.0, 9432.0, 9434.0, 9424.0, 9421.0, 9433.0, 9430.0, 9430.0, 9442.0, 9438.0, 9407.0, 9415.0, 9412.0, 9431.0, 9466.0, 9472.0, 9482.0, 9474.0, 9478.0, 9467.0, 9456.0, 9446.0, 9432.0, 9429.0, 9434.0, 9438.0, 9438.0, 9443.0, 9432.0, 9434.0, 9437.0, 9435.0, 9431.0, 9424.0, 9427.0, 9428.0, 9431.0, 9442.0, 9437.0, 9440.0, 9443.0, 9441.0, 9430.0, 9429.0, 9441.0, 9436.0, 9432.0, 9435.0, 9437.0, 9447.0, 9458.0, 9476.0, 9476.0, 9459.0, 9438.0, 9445.0, 9431.0, 9431.0, 9435.0, 9423.0, 9425.0, 9440.0, 9421.0, 9423.0, 9440.0, 9428.0, 9437.0, 9430.0, 9442.0, 9432.0, 9431.0, 9442.0, 9437.0, 9435.0, 9440.0, 9446.0, 9457.0, 9462.0, 9454.0, 9449.0, 9450.0, 9466.0, 9450.0, 9453.0, 9462.0, 9451.0, 9444.0, 9461.0, 9455.0, 9451.0, 9461.0, 9449.0, 9457.0, 9455.0, 9454.0, 9450.0, 9440.0, 9436.0, 9431.0, 9434.0, 9458.0, 9462.0, 9467.0, 9459.0, 9457.0, 9440.0, 9443.0, 9437.0, 9434.0, 9434.0, 9439.0, 9446.0, 9437.0, 9446.0, 9439.0, 9448.0, 9439.0, 9437.0, 9433.0, 9432.0, 9430.0, 9430.0, 9426.0, 9449.0, 9444.0, 9457.0, 9464.0, 9476.0],
      "WindowWidth": [20427.0, 20273.0, 20239.0, 20197.0, 20216.0, 20201.0, 20193.0, 20181.0, 20173.0, 20154.0, 20117.0, 20111.0, 20086.0, 20092.0, 20074.0, 20095.0, 20094.0, 20068.0, 20063.0, 20072.0, 20095.0, 20094.0, 20103.0, 20117.0, 20119.0, 20121.0, 20098.0, 20102.0, 20101.0, 20095.0, 20104.0, 20087.0, 20070.0, 20094.0, 20097.0, 20099.0, 20140.0, 20128.0, 20141.0, 20125.0, 20108.0, 20110.0, 20094.0, 20062.0, 20077.0, 20057.0, 20063.0, 20065.0, 20059.0, 20054.0, 20043.0, 20063.0, 20063.0, 20064.0, 20080.0, 20088.0, 20107.0, 20139.0, 20108.0, 20116.0, 20095.0, 20099.0, 20108.0, 20089.0, 20099.0, 20084.0, 20102.0, 20106.0, 20080.0, 20092.0, 20075.0, 20064.0, 20055.0, 20079.0, 20103.0, 20112.0, 20131.0, 20111.0, 20114.0, 20075.0, 20096.0, 20079.0, 20063.0, 20073.0, 20066.0, 20055.0, 20063.0, 20021.0, 20036.0, 20029.0, 20027.0, 20040.0, 20032.0, 20044.0, 20039.0, 20059.0, 20049.0, 20037.0, 20059.0, 20049.0, 20034.0, 20035.0, 20021.0, 20014.0, 20029.0, 20042.0, 20036.0, 20034.0, 20040.0, 20061.0, 20077.0, 20101.0, 20119.0, 20102.0, 20114.0, 20097.0, 20080.0, 20068.0, 20052.0, 20061.0, 20075.0, 20039.0, 20054.0, 20050.0, 20045.0, 20043.0, 20040.0, 20011.0, 19995.0, 20021.0, 20025.0, 20067.0, 20088.0, 20095.0, 20120.0, 20105.0, 20086.0, 20044.0, 20040.0, 20027.0, 20017.0, 20038.0, 20039.0, 20037.0, 20056.0, 20053.0, 19989.0, 19995.0, 19998.0, 20042.0, 20108.0, 20129.0, 20153.0, 20133.0, 20136.0, 20118.0, 20091.0, 20067.0, 20042.0, 20029.0, 20038.0, 20053.0, 20053.0, 20057.0, 20041.0, 20049.0, 20049.0, 20042.0, 20041.0, 20024.0, 20027.0, 20032.0, 20041.0, 20055.0, 20049.0, 20057.0, 20058.0, 20051.0, 20037.0, 20033.0, 20053.0, 20046.0, 20041.0, 20043.0, 20047.0, 20073.0, 20099.0, 20128.0, 20127.0, 20100.0, 20059.0, 20064.0, 20038.0, 20039.0, 20041.0, 20021.0, 20027.0, 20047.0, 20015.0, 20022.0, 20049.0, 20029.0, 20050.0, 20035.0, 20055.0, 20041.0, 20040.0, 20056.0, 20047.0, 20051.0, 20055.0, 20066.0, 20094.0, 20099.0, 20083.0, 20079.0, 20079.0, 20104.0, 20079.0, 20088.0, 20100.0, 20083.0, 20069.0, 20097.0, 20088.0, 20084.0, 20097.0, 20075.0, 20092.0, 20086.0, 20082.0, 20080.0, 20056.0, 20045.0, 20036.0, 20048.0, 20089.0, 20099.0, 20117.0, 20100.0, 20094.0, 20065.0, 20057.0, 20046.0, 20045.0, 20043.0, 20052.0, 20064.0, 20054.0, 20065.0, 20053.0, 20073.0, 20051.0, 20043.0, 20043.0, 20036.0, 20030.0, 20033.0, 20029.0, 20065.0, 20059.0, 20093.0, 20105.0, 20127.0]
    },
    "slices": {}
  }
}