{
  "AcquisitionMatrixPE": 104,
  "AcquisitionNumber": 1,
  "AcquisitionTime": "14:26:29.537500",
  "BandwidthPerPixelPhaseEncode": 16.578,
  "BaseResolution": 104,
  "BodyPartExamined": "BRAIN",
  "ConsistencyInfo": "N4_VE11C_LATEST_20160120",
  "ConversionSoftware": "dcm2niix",
  "ConversionSoftwareVersion": "v1.0.20190410  GCC6.3.0",
  "DerivedVendorReportedEchoSpacing": 0.000580009,
  "DeviceSerialNumber": "166018",
  "DwellTime": 2.1e-06,
  "EchoTime": 0.037,
  "EchoTrainLength": 104,
  "EffectiveEchoSpacing": 0.000580009,
  "FlipAngle": 68,
  "ImageComments": "Unaliased_MB6_PE3_LB",
  "ImageOrientationPatientDICOM": [0.998959, -0.00538936, 0.0452903, 0.00958961, 0.995616, -0.0930419],
  "ImageType": [
    "ORIGINAL",
    "PRIMARY",
    "M",
    "MB",
    "ND",
    "MOSAIC"
],
  "ImagingFrequency": 123.191,
  "InPlanePhaseEncodingDirectionDICOM": "COL",
  "InstitutionAddress": "Washington_Place_6_NYC_NYC_US_10003",
  "InstitutionName": "NYU_-_CBI",
  "InstitutionalDepartmentName": "Department",
  "MRAcquisitionType": "2D",
  "MagneticFieldStrength": 3,
  "Manufacturer": "Siemens",
  "ManufacturersModelName": "Prisma",
  "Modality": "MR",
  "MultibandAccelerationFactor": 6,
  "PartialFourier": 1,
  "PatientPosition": "HFS",
  "PercentPhaseFOV": 100,
  "PhaseEncodingDirection": "j",
  "PhaseEncodingSteps": 104,
  "PhaseResolution": 1,
  "PixelBandwidth": 2290,
  "ProcedureStepDescription": "Investigators_Winawer",
  "ProtocolName": "task-sfprescaled_cmrr_mbepi_s6_2mm_66sl_PA_TR1.0",
  "PulseSequenceDetails": "%CustomerSeq%_cmrr_mbep2d_bold",
  "ReceiveCoilActiveElements": "HC1-7",
  "ReceiveCoilName": "HeadNeck_64",
  "ReconMatrixPE": 104,
  "RepetitionTime": 1,
  "SAR": 0.069977,
  "ScanOptions": "FS",
  "ScanningSequence": "EP",
  "SequenceName": "epfid2d1_104",
  "SequenceVariant": "SK_SS",
  "SeriesDescription": "task-sfprescaled_cmrr_mbepi_s6_2mm_66sl_PA_TR1.0",
  "SeriesNumber": 24,
  "ShimSetting": [290, -12622, -8536, 412, 11, 26, 145, 1],
  "SliceThickness": 2,
  "SliceTiming": [0, 0.535, 0.09, 0.6225, 0.1775, 0.7125, 0.2675, 0.8025, 0.355, 0.89, 0.445, 0, 0.535, 0.09, 0.6225, 0.1775, 0.7125, 0.2675, 0.8025, 0.355, 0.89, 0.445, 0, 0.535, 0.09, 0.6225, 0.1775, 0.7125, 0.2675, 0.8025, 0.355, 0.89, 0.445, 0, 0.535, 0.09, 0.6225, 0.1775, 0.7125, 0.2675, 0.8025, 0.355, 0.89, 0.445, 0, 0.535, 0.09, 0.6225, 0.1775, 0.7125, 0.2675, 0.8025, 0.355, 0.89, 0.445, 0, 0.535, 0.09, 0.6225, 0.1775, 0.7125, 0.2675, 0.8025, 0.355, 0.89, 0.445],
  "SoftwareVersions": "syngo_MR_E11",
  "SpacingBetweenSlices": 2,
  "StationName": "AWP166018",
  "TaskName": "sfprescaled",
  "TotalReadoutTime": 0.0597409,
  "TxRefAmp": 228.882,
  "WipMemBlock": "c7edefe1-41bb-4e87-b9e0-9cf432de8593||Sequence: R016 ve11c/master r/8780670; Nov 27 2017 15:05:12 by eja",
  "dcmmeta_affine": [
    [-1.9979186058044434, 0.019179219380021095, 0.08918056637048721, 105.54573822021484],
    [0.010778723284602165, 1.9912320375442505, -0.1867588758468628, -79.39433288574219],
    [0.0905805453658104, 0.18608388304710388, 1.9892631769180298, -66.26029968261719],
    [0.0, 0.0, 0.0, 1.0]
],
  "dcmmeta_reorient_transform": [
    [0.0, -1.0, 0.0, 103.0],
    [1.0, 0.0, 0.0, 0.0],
    [0.0, 0.0, 1.0, 0.0],
    [0.0, 0.0, 0.0, 1.0]
],
  "dcmmeta_shape": [104, 104, 66, 264],
  "dcmmeta_slice_dim": 2,
  "dcmmeta_version": 0.6,
  "global": {
    "const": {
      "AccessionNumber": "juLLetfq",
  "NumberOfVolumes": 264,
      "AcquisitionMatrix": [104, 0, 0, 104],
      "AngioFlag": "N",
      "BitsAllocated": 16,
      "BitsStored": 16,
      "BodyPartExamined": "BRAIN",
      "Columns": 936,
      "EchoNumbers": 1,
      "EchoTime": 37.0,
      "EchoTrainLength": 104,
      "FlipAngle": 68.0,
      "HighBit": 15,
      "ImageOrientationPatient": [0.99895933151222, -0.0053893617229, 0.04529027229865, 0.00958960937728, 0.99561600835794, -0.0930419437318],
      "ImagePositionPatient": [-946.6339183146, -949.57113348364, -7.3642652504894],
      "ImageType": [
        "ORIGINAL",
        "PRIMARY",
        "M",
        "MB",
        "ND",
        "MOSAIC"
],
      "ImagedNucleus": "1H",
      "ImagingFrequency": 123.191066,
      "InPlanePhaseEncodingDirection": "COL",
      "MRAcquisitionType": "2D",
      "MagneticFieldStrength": 3.0,
      "Manufacturer": "SIEMENS",
      "ManufacturerModelName": "Prisma",
      "Modality": "MR",
      "NumberOfAverages": 1.0,
      "NumberOfPhaseEncodingSteps": 104,
      "PercentPhaseFieldOfView": 100.0,
      "PercentSampling": 100.0,
      "PerformedProcedureStepStartTime": "133403.321000",
      "PhotometricInterpretation": "MONOCHROME2",
      "PixelBandwidth": 2290.0,
      "PixelRepresentation": 0,
      "PixelSpacing": [2.0, 2.0],
      "ProtocolName": "task-sfprescaled_cmrr_mbepi_s6_2mm_66sl_PA_TR1.0",
      "RepetitionTime": 1000.0,
      "Rows": 936,
      "SAR": 0.06997703584336,
      "SamplesPerPixel": 1,
      "ScanOptions": "FS",
      "ScanningSequence": "EP",
      "SequenceName": "epfid2d1_104",
      "SequenceVariant": [
        "SK",
        "SS"
],
      "SeriesDescription": "task-sfprescaled_cmrr_mbepi_s6_2mm_66sl_PA_TR1.0",
      "SeriesNumber": 24,
      "SeriesTime": "142719.530000",
      "SliceLocation": -53.784471009778,
      "SliceThickness": 2.0,
      "SmallestImagePixelValue": 0,
      "SoftwareVersions": "syngo MR E11",
      "SpacingBetweenSlices": 2.0000000443055,
      "SpecificCharacterSet": "ISO_IR 100",
      "StudyID": "1",
      "StudyTime": "133403.273000",
      "TransmitCoilName": "Body",
      "VariableFlipAngleFlag": "N",
      "WindowCenterWidthExplanation": "Algo1",
      "dBdt": 0.0},
    "slices": {}
  },
  "time": {
    "samples": {
      "AcquisitionNumber": [1, 2, 3, 4, 5, 6, 7, 8, 9, 10, 11, 12, 13, 14, 15, 16, 17, 18, 19, 20, 21, 22, 23, 24, 25, 26, 27, 28, 29, 30, 31, 32, 33, 34, 35, 36, 37, 38, 39, 40, 41, 42, 43, 44, 45, 46, 47, 48, 49, 50, 51, 52, 53, 54, 55, 56, 57, 58, 59, 60, 61, 62, 63, 64, 65, 66, 67, 68, 69, 70, 71, 72, 73, 74, 75, 76, 77, 78, 79, 80, 81, 82, 83, 84, 85, 86, 87, 88, 89, 90, 91, 92, 93, 94, 95, 96, 97, 98, 99, 100, 101, 102, 103, 104, 105, 106, 107, 108, 109, 110, 111, 112, 113, 114, 115, 116, 117, 118, 119, 120, 121, 122, 123, 124, 125, 126, 127, 128, 129, 130, 131, 132, 133, 134, 135, 136, 137, 138, 139, 140, 141, 142, 143, 144, 145, 146, 147, 148, 149, 150, 151, 152, 153, 154, 155, 156, 157, 158, 159, 160, 161, 162, 163, 164, 165, 166, 167, 168, 169, 170, 171, 172, 173, 174, 175, 176, 177, 178, 179, 180, 181, 182, 183, 184, 185, 186, 187, 188, 189, 190, 191, 192, 193, 194, 195, 196, 197, 198, 199, 200, 201, 202, 203, 204, 205, 206, 207, 208, 209, 210, 211, 212, 213, 214, 215, 216, 217, 218, 219, 220, 221, 222, 223, 224, 225, 226, 227, 228, 229, 230, 231, 232, 233, 234, 235, 236, 237, 238, 239, 240, 241, 242, 243, 244, 245, 246, 247, 248, 249, 250, 251, 252, 253, 254, 255, 256, 257, 258, 259, 260, 261, 262, 263, 264],
      "AcquisitionTime": ["142629.537500", "142630.537500", "142631.537500", "142632.537500", "142633.537500", "142634.537500", "142635.537500", "142636.537500", "142637.537500", "142638.537500", "142639.537500", "142640.537500", "142641.537500", "142642.537500", "142643.537500", "142644.537500", "142645.537500", "142646.537500", "142647.537500", "142648.537500", "142649.537500", "142650.537500", "142651.537500", "142652.537500", "142653.537500", "142654.537500", "142655.537500", "142656.537500", "142657.537500", "142658.537500", "142659.537500", "142700.537500", "142701.537500", "142702.537500", "142703.537500", "142704.537500", "142705.537500", "142706.537500", "142707.537500", "142708.537500", "142709.537500", "142710.537500", "142711.537500", "142712.537500", "142713.537500", "142714.537500", "142715.537500", "142716.537500", "142717.537500", "142718.537500", "142719.537500", "142720.537500", "142721.537500", "142722.537500", "142723.537500", "142724.537500", "142725.537500", "142726.537500", "142727.537500", "142728.537500", "142729.537500", "142730.537500", "142731.537500", "142732.537500", "142733.537500", "142734.537500", "142735.537500", "142736.537500", "142737.537500", "142738.537500", "142739.537500", "142740.537500", "142741.537500", "142742.537500", "142743.537500", "142744.537500", "142745.537500", "142746.537500", "142747.537500", "142748.537500", "142749.537500", "142750.537500", "142751.537500", "142752.537500", "142753.537500", "142754.537500", "142755.537500", "142756.537500", "142757.537500", "142758.537500", "142759.537500", "142800.537500", "142801.537500", "142802.537500", "142803.537500", "142804.537500", "142805.537500", "142806.537500", "142807.537500", "142808.537500", "142809.537500", "142810.537500", "142811.537500", "142812.537500", "142813.537500", "142814.537500", "142815.537500", "142816.537500", "142817.537500", "142818.537500", "142819.537500", "142820.537500", "142821.537500", "142822.537500", "142823.537500", "142824.537500", "142825.537500", "142826.537500", "142827.537500", "142828.537500", "142829.537500", "142830.537500", "142831.537500", "142832.537500", "142833.537500", "142834.537500", "142835.537500", "142836.537500", "142837.537500", "142838.537500", "142839.537500", "142840.537500", "142841.537500", "142842.537500", "142843.537500", "142844.537500", "142845.537500", "142846.537500", "142847.537500", "142848.537500", "142849.537500", "142850.537500", "142851.537500", "142852.537500", "142853.537500", "142854.537500", "142855.537500", "142856.537500", "142857.537500", "142858.537500", "142859.537500", "142900.537500", "142901.537500", "142902.537500", "142903.537500", "142904.537500", "142905.537500", "142906.537500", "142907.537500", "142908.537500", "142909.537500", "142910.537500", "142911.537500", "142912.537500", "142913.537500", "142914.537500", "142915.537500", "142916.537500", "142917.537500", "142918.537500", "142919.537500", "142920.537500", "142921.537500", "142922.537500", "142923.537500", "142924.537500", "142925.537500", "142926.537500", "142927.537500", "142928.537500", "142929.537500", "142930.537500", "142931.537500", "142932.537500", "142933.537500", "142934.537500", "142935.537500", "142936.537500", "142937.537500", "142938.537500", "142939.537500", "142940.537500", "142941.537500", "142942.537500", "142943.537500", "142944.537500", "142945.537500", "142946.537500", "142947.537500", "142948.537500", "142949.537500", "142950.537500", "142951.537500", "142952.537500", "142953.537500", "142954.537500", "142955.537500", "142956.537500", "142957.537500", "142958.537500", "142959.537500", "143000.537500", "143001.537500", "143002.537500", "143003.537500", "143004.537500", "143005.537500", "143006.537500", "143007.537500", "143008.537500", "143009.537500", "143010.537500", "143011.537500", "143012.537500", "143013.537500", "143014.537500", "143015.537500", "143016.537500", "143017.537500", "143018.537500", "143019.537500", "143020.537500", "143021.537500", "143022.537500", "143023.537500", "143024.537500", "143025.537500", "143026.537500", "143027.537500", "143028.537500", "143029.537500", "143030.537500", "143031.537500", "143032.537500", "143033.537500", "143034.537500", "143035.537500", "143036.537500", "143037.537500", "143038.537500", "143039.537500", "143040.537500", "143041.537500", "143042.537500", "143043.537500", "143044.537500", "143045.537500", "143046.537500", "143047.537500", "143048.537500", "143049.537500", "143050.537500", "143051.537500", "143052.537500"],
      "ContentTime": ["142719.532000", "142724.506000", "142724.509000", "142724.513000", "142724.518000", "142724.520000", "142724.523000", "142724.542000", "142729.505000", "142729.508000", "142729.511000", "142729.513000", "142729.516000", "142729.519000", "142729.535000", "142729.538000", "142734.506000", "142734.509000", "142734.512000", "142734.515000", "142734.518000", "142734.520000", "142734.523000", "142739.506000", "142739.517000", "142739.520000", "142739.522000", "142739.525000", "142739.528000", "142739.531000", "142744.506000", "142744.509000", "142744.512000", "142744.515000", "142744.517000", "142744.520000", "142744.523000", "142749.506000", "142749.509000", "142749.512000", "142749.515000", "142749.517000", "142749.520000", "142749.523000", "142754.506000", "142754.509000", "142754.512000", "142754.515000", "142754.518000", "142754.521000", "142754.523000", "142759.506000", "142759.509000", "142759.512000", "142759.515000", "142759.518000", "142759.520000", "142759.523000", "142804.505000", "142804.508000", "142804.511000", "142804.514000", "142804.517000", "142804.519000", "142804.522000", "142809.506000", "142809.509000", "142809.512000", "142809.515000", "142809.518000", "142809.520000", "142809.523000", "142814.506000", "142814.509000", "142814.512000", "142814.515000", "142814.518000", "142814.520000", "142814.523000", "142819.506000", "142819.509000", "142819.512000", "142819.515000", "142819.518000", "142819.521000", "142819.523000", "142824.506000", "142824.509000", "142824.512000", "142824.515000", "142824.517000", "142824.520000", "142824.523000", "142829.506000", "142829.509000", "142829.512000", "142829.515000", "142829.517000", "142829.520000", "142829.523000", "142834.506000", "142834.509000", "142834.512000", "142834.515000", "142834.518000", "142834.520000", "142834.523000", "142839.505000", "142839.512000", "142839.515000", "142839.518000", "142839.521000", "142839.524000", "142839.526000", "142844.506000", "142844.509000", "142844.512000", "142844.515000", "142844.518000", "142844.521000", "142844.524000", "142849.506000", "142849.509000", "142849.512000", "142849.515000", "142849.518000", "142849.520000", "142849.523000", "142849.526000", "142854.506000", "142854.509000", "142854.512000", "142854.515000", "142854.522000", "142854.525000", "142854.544000", "142859.506000", "142859.509000", "142859.512000", "142859.515000", "142859.517000", "142859.520000", "142859.523000", "142904.506000", "142904.509000", "142904.512000", "142904.515000", "142904.518000", "142904.520000", "142904.523000", "142909.506000", "142909.509000", "142909.512000", "142909.515000", "142909.518000", "142909.520000", "142909.523000", "142914.505000", "142914.508000", "142914.511000", "142914.514000", "142914.517000", "142914.520000", "142914.522000", "142919.506000", "142919.509000", "142919.512000", "142919.515000", "142919.518000", "142924.506000", "142924.509000", "142924.512000", "142924.515000", "142924.518000", "142929.506000", "142929.509000", "142929.512000", "142929.515000", "142929.518000", "142934.506000", "142934.509000", "142934.512000", "142934.515000", "142934.518000", "142939.506000", "142939.509000", "142939.512000", "142939.515000", "142939.518000", "142944.506000", "142944.509000", "142944.512000", "142944.515000", "142944.518000", "142949.505000", "142949.508000", "142949.511000", "142949.514000", "142949.517000", "142954.506000", "142954.509000", "142954.512000", "142954.515000", "142954.518000", "142959.506000", "142959.509000", "142959.512000", "142959.515000", "142959.518000", "143004.506000", "143004.509000", "143004.512000", "143004.515000", "143004.518000", "143009.506000", "143009.509000", "143009.512000", "143009.515000", "143009.518000", "143014.506000", "143014.509000", "143014.512000", "143014.515000", "143014.518000", "143019.506000", "143019.509000", "143019.512000", "143019.515000", "143019.518000", "143024.505000", "143024.508000", "143024.511000", "143024.514000", "143024.517000", "143029.506000", "143029.509000", "143029.512000", "143029.515000", "143029.518000", "143034.506000", "143034.509000", "143034.512000", "143034.515000", "143034.518000", "143039.506000", "143039.509000", "143039.512000", "143039.515000", "143039.518000", "143044.506000", "143044.509000", "143044.512000", "143044.515000", "143044.518000", "143049.506000", "143049.509000", "143049.512000", "143049.515000", "143049.518000", "143053.876000", "143053.881000", "143053.886000", "143053.890000", "143053.893000"],
      "InstanceCreationTime": ["142719.532000", "142724.506000", "142724.509000", "142724.513000", "142724.518000", "142724.520000", "142724.523000", "142724.542000", "142729.505000", "142729.508000", "142729.511000", "142729.513000", "142729.516000", "142729.519000", "142729.535000", "142729.538000", "142734.506000", "142734.509000", "142734.512000", "142734.515000", "142734.518000", "142734.520000", "142734.523000", "142739.506000", "142739.517000", "142739.520000", "142739.522000", "142739.525000", "142739.528000", "142739.531000", "142744.506000", "142744.509000", "142744.512000", "142744.515000", "142744.517000", "142744.520000", "142744.523000", "142749.506000", "142749.509000", "142749.512000", "142749.515000", "142749.517000", "142749.520000", "142749.523000", "142754.506000", "142754.509000", "142754.512000", "142754.515000", "142754.518000", "142754.521000", "142754.523000", "142759.506000", "142759.509000", "142759.512000", "142759.515000", "142759.518000", "142759.520000", "142759.523000", "142804.505000", "142804.508000", "142804.511000", "142804.514000", "142804.517000", "142804.519000", "142804.522000", "142809.506000", "142809.509000", "142809.512000", "142809.515000", "142809.518000", "142809.520000", "142809.523000", "142814.506000", "142814.509000", "142814.512000", "142814.515000", "142814.518000", "142814.520000", "142814.523000", "142819.506000", "142819.509000", "142819.512000", "142819.515000", "142819.518000", "142819.521000", "142819.523000", "142824.506000", "142824.509000", "142824.512000", "142824.515000", "142824.517000", "142824.520000", "142824.523000", "142829.506000", "142829.509000", "142829.512000", "142829.515000", "142829.517000", "142829.520000", "142829.523000", "142834.506000", "142834.509000", "142834.512000", "142834.515000", "142834.518000", "142834.520000", "142834.523000", "142839.505000", "142839.512000", "142839.515000", "142839.518000", "142839.521000", "142839.524000", "142839.526000", "142844.506000", "142844.509000", "142844.512000", "142844.515000", "142844.518000", "142844.521000", "142844.524000", "142849.506000", "142849.509000", "142849.512000", "142849.515000", "142849.518000", "142849.520000", "142849.523000", "142849.526000", "142854.506000", "142854.509000", "142854.512000", "142854.515000", "142854.522000", "142854.525000", "142854.544000", "142859.506000", "142859.509000", "142859.512000", "142859.515000", "142859.517000", "142859.520000", "142859.523000", "142904.506000", "142904.509000", "142904.512000", "142904.515000", "142904.518000", "142904.520000", "142904.523000", "142909.506000", "142909.509000", "142909.512000", "142909.515000", "142909.518000", "142909.520000", "142909.523000", "142914.505000", "142914.508000", "142914.511000", "142914.514000", "142914.517000", "142914.520000", "142914.522000", "142919.506000", "142919.509000", "142919.512000", "142919.515000", "142919.518000", "142924.506000", "142924.509000", "142924.512000", "142924.515000", "142924.518000", "142929.506000", "142929.509000", "142929.512000", "142929.515000", "142929.518000", "142934.506000", "142934.509000", "142934.512000", "142934.515000", "142934.518000", "142939.506000", "142939.509000", "142939.512000", "142939.515000", "142939.518000", "142944.506000", "142944.509000", "142944.512000", "142944.515000", "142944.518000", "142949.505000", "142949.508000", "142949.511000", "142949.514000", "142949.517000", "142954.506000", "142954.509000", "142954.512000", "142954.515000", "142954.518000", "142959.506000", "142959.509000", "142959.512000", "142959.515000", "142959.518000", "143004.506000", "143004.509000", "143004.512000", "143004.515000", "143004.518000", "143009.506000", "143009.509000", "143009.512000", "143009.515000", "143009.518000", "143014.506000", "143014.509000", "143014.512000", "143014.515000", "143014.518000", "143019.506000", "143019.509000", "143019.512000", "143019.515000", "143019.518000", "143024.505000", "143024.508000", "143024.511000", "143024.514000", "143024.517000", "143029.506000", "143029.509000", "143029.512000", "143029.515000", "143029.518000", "143034.506000", "143034.509000", "143034.512000", "143034.515000", "143034.518000", "143039.506000", "143039.509000", "143039.512000", "143039.515000", "143039.518000", "143044.506000", "143044.509000", "143044.512000", "143044.515000", "143044.518000", "143049.506000", "143049.509000", "143049.512000", "143049.515000", "143049.518000", "143053.876000", "143053.881000", "143053.886000", "143053.890000", "143053.893000"],
      "InstanceNumber": [1, 2, 3, 4, 5, 6, 7, 8, 9, 10, 11, 12, 13, 14, 15, 16, 17, 18, 19, 20, 21, 22, 23, 24, 25, 26, 27, 28, 29, 30, 31, 32, 33, 34, 35, 36, 37, 38, 39, 40, 41, 42, 43, 44, 45, 46, 47, 48, 49, 50, 51, 52, 53, 54, 55, 56, 57, 58, 59, 60, 61, 62, 63, 64, 65, 66, 67, 68, 69, 70, 71, 72, 73, 74, 75, 76, 77, 78, 79, 80, 81, 82, 83, 84, 85, 86, 87, 88, 89, 90, 91, 92, 93, 94, 95, 96, 97, 98, 99, 100, 101, 102, 103, 104, 105, 106, 107, 108, 109, 110, 111, 112, 113, 114, 115, 116, 117, 118, 119, 120, 121, 122, 123, 124, 125, 126, 127, 128, 129, 130, 131, 132, 133, 134, 135, 136, 137, 138, 139, 140, 141, 142, 143, 144, 145, 146, 147, 148, 149, 150, 151, 152, 153, 154, 155, 156, 157, 158, 159, 160, 161, 162, 163, 164, 165, 166, 167, 168, 169, 170, 171, 172, 173, 174, 175, 176, 177, 178, 179, 180, 181, 182, 183, 184, 185, 186, 187, 188, 189, 190, 191, 192, 193, 194, 195, 196, 197, 198, 199, 200, 201, 202, 203, 204, 205, 206, 207, 208, 209, 210, 211, 212, 213, 214, 215, 216, 217, 218, 219, 220, 221, 222, 223, 224, 225, 226, 227, 228, 229, 230, 231, 232, 233, 234, 235, 236, 237, 238, 239, 240, 241, 242, 243, 244, 245, 246, 247, 248, 249, 250, 251, 252, 253, 254, 255, 256, 257, 258, 259, 260, 261, 262, 263, 264],
      "LargestImagePixelValue": [30393, 29589, 29335, 29085, 29134, 28696, 29004, 29128, 28454, 28376, 28614, 28615, 28494, 28551, 28778, 28656, 28623, 28209, 28669, 29035, 28552, 28654, 28717, 28359, 28363, 28655, 28641, 29524, 28858, 28572, 29075, 28556, 28582, 28369, 28566, 28469, 28454, 28985, 28910, 28839, 28919, 28575, 28990, 28979, 28756, 28500, 28842, 28957, 29005, 28810, 28608, 28721, 28882, 28404, 28739, 29208, 29193, 28883, 28567, 28762, 28905, 28438, 28705, 28772, 28482, 28882, 28701, 28568, 28984, 28943, 28588, 28798, 28298, 28700, 28996, 28900, 28648, 28362, 28738, 28659, 28411, 28780, 28660, 29062, 28587, 28696, 28647, 28629, 28544, 28401, 28664, 28503, 28786, 28817, 28344, 28951, 29280, 28984, 29096, 29153, 28968, 28702, 28529, 28406, 28532, 28480, 28612, 28578, 28836, 28445, 28591, 28603, 28436, 28760, 28571, 29295, 28777, 28566, 28679, 28902, 28688, 28586, 28804, 28636, 28096, 28766, 28586, 28188, 28556, 28774, 28904, 28578, 28797, 28684, 28624, 28289, 28432, 28483, 28773, 28403, 28683, 28237, 28642, 28730, 28832, 28895, 28773, 28990, 29078, 28954, 28851, 28949, 28504, 28582, 28658, 28206, 28347, 28949, 28725, 28937, 28931, 28897, 28431, 28557, 28859, 28667, 28457, 28394, 28874, 28375, 28438, 28647, 28415, 28693, 28218, 28789, 28417, 28967, 28764, 28787, 28952, 28287, 28674, 28748, 28414, 28683, 29298, 28709, 28673, 28917, 28963, 28576, 29148, 28902, 28651, 28569, 28986, 28455, 28484, 28662, 28357, 28878, 28811, 29103, 28744, 28686, 28900, 28841, 28714, 28673, 28896, 29055, 28464, 28516, 29075, 29006, 28659, 29039, 28633, 28556, 28570, 28834, 28838, 28294, 28605, 28632, 28721, 28722, 28351, 28728, 28709, 28606, 28765, 28765, 28466, 28492, 28877, 28640, 28558, 28927, 29028, 28887, 28411, 28511, 28507, 28653, 28955, 28752, 28690, 28747, 28933, 28424, 28507, 28439, 28897, 28851, 29355, 29007, 28540, 28797, 29006, 28851, 28535, 28837],
      "WindowCenter": [9509.0, 9455.0, 9440.0, 9414.0, 9395.0, 9394.0, 9399.0, 9384.0, 9377.0, 9384.0, 9392.0, 9378.0, 9378.0, 9387.0, 9408.0, 9400.0, 9396.0, 9397.0, 9409.0, 9405.0, 9388.0, 9409.0, 9410.0, 9413.0, 9423.0, 9428.0, 9420.0, 9430.0, 9410.0, 9394.0, 9399.0, 9387.0, 9379.0, 9378.0, 9378.0, 9386.0, 9379.0, 9397.0, 9391.0, 9392.0, 9400.0, 9394.0, 9415.0, 9423.0, 9410.0, 9396.0, 9409.0, 9399.0, 9398.0, 9393.0, 9383.0, 9383.0, 9391.0, 9384.0, 9390.0, 9403.0, 9404.0, 9398.0, 9393.0, 9406.0, 9400.0, 9393.0, 9408.0, 9399.0, 9385.0, 9392.0, 9382.0, 9367.0, 9380.0, 9388.0, 9391.0, 9406.0, 9398.0, 9400.0, 9397.0, 9390.0, 9373.0, 9364.0, 9370.0, 9369.0, 9365.0, 9372.0, 9372.0, 9378.0, 9372.0, 9379.0, 9371.0, 9363.0, 9366.0, 9365.0, 9372.0, 9380.0, 9397.0, 9398.0, 9393.0, 9399.0, 9410.0, 9396.0, 9395.0, 9390.0, 9390.0, 9397.0, 9391.0, 9391.0, 9391.0, 9393.0, 9391.0, 9384.0, 9399.0, 9384.0, 9384.0, 9382.0, 9383.0, 9381.0, 9381.0, 9409.0, 9389.0, 9383.0, 9389.0, 9381.0, 9386.0, 9382.0, 9404.0, 9393.0, 9392.0, 9402.0, 9386.0, 9372.0, 9382.0, 9380.0, 9380.0, 9382.0, 9396.0, 9403.0, 9401.0, 9411.0, 9429.0, 9427.0, 9426.0, 9411.0, 9404.0, 9374.0, 9382.0, 9384.0, 9382.0, 9374.0, 9381.0, 9380.0, 9379.0, 9379.0, 9375.0, 9372.0, 9359.0, 9365.0, 9364.0, 9360.0, 9375.0, 9383.0, 9390.0, 9392.0, 9399.0, 9389.0, 9376.0, 9383.0, 9397.0, 9383.0, 9382.0, 9383.0, 9382.0, 9376.0, 9377.0, 9392.0, 9384.0, 9390.0, 9380.0, 9391.0, 9387.0, 9389.0, 9390.0, 9400.0, 9408.0, 9398.0, 9411.0, 9409.0, 9395.0, 9383.0, 9394.0, 9382.0, 9383.0, 9393.0, 9408.0, 9403.0, 9422.0, 9407.0, 9392.0, 9384.0, 9397.0, 9384.0, 9384.0, 9391.0, 9394.0, 9384.0, 9382.0, 9391.0, 9377.0, 9374.0, 9371.0, 9373.0, 9374.0, 9389.0, 9401.0, 9414.0, 9403.0, 9396.0, 9408.0, 9397.0, 9382.0, 9382.0, 9375.0, 9368.0, 9374.0, 9375.0, 9373.0, 9368.0, 9383.0, 9376.0, 9381.0, 9390.0, 9375.0, 9382.0, 9389.0, 9382.0, 9389.0, 9397.0, 9394.0, 9393.0, 9401.0, 9408.0, 9402.0, 9401.0, 9407.0, 9399.0, 9393.0, 9402.0, 9394.0, 9399.0, 9398.0, 9399.0, 9391.0, 9391.0, 9399.0, 9385.0, 9377.0, 9374.0, 9383.0, 9382.0, 9395.0, 9403.0, 9384.0, 9384.0, 9396.0, 9382.0, 9368.0, 9373.0],
      "WindowWidth": [20257.0, 20123.0, 20075.0, 20012.0, 19967.0, 19960.0, 19969.0, 19936.0, 19923.0, 19934.0, 19955.0, 19926.0, 19928.0, 19946.0, 19988.0, 19971.0, 19965.0, 19967.0, 19990.0, 19977.0, 19947.0, 19990.0, 19994.0, 20002.0, 20025.0, 20033.0, 20014.0, 20031.0, 19991.0, 19959.0, 19964.0, 19948.0, 19929.0, 19924.0, 19929.0, 19947.0, 19931.0, 19963.0, 19953.0, 19957.0, 19972.0, 19962.0, 20001.0, 20021.0, 19995.0, 19968.0, 19993.0, 19970.0, 19964.0, 19959.0, 19938.0, 19935.0, 19953.0, 19938.0, 19948.0, 19973.0, 19977.0, 19965.0, 19959.0, 19984.0, 19970.0, 19959.0, 19991.0, 19969.0, 19940.0, 19954.0, 19932.0, 19900.0, 19924.0, 19944.0, 19951.0, 19981.0, 19977.0, 19973.0, 19963.0, 19950.0, 19914.0, 19894.0, 19903.0, 19901.0, 19895.0, 19910.0, 19912.0, 19919.0, 19913.0, 19924.0, 19906.0, 19891.0, 19900.0, 19895.0, 19908.0, 19926.0, 19963.0, 19965.0, 19957.0, 19969.0, 19985.0, 19958.0, 19955.0, 19951.0, 19947.0, 19962.0, 19955.0, 19953.0, 19953.0, 19960.0, 19951.0, 19940.0, 19970.0, 19938.0, 19937.0, 19935.0, 19937.0, 19930.0, 19931.0, 19984.0, 19948.0, 19936.0, 19946.0, 19931.0, 19936.0, 19931.0, 19976.0, 19956.0, 19955.0, 19977.0, 19944.0, 19916.0, 19934.0, 19926.0, 19925.0, 19932.0, 19961.0, 19973.0, 19973.0, 19998.0, 20036.0, 20028.0, 20023.0, 19996.0, 19981.0, 19921.0, 19931.0, 19939.0, 19931.0, 19913.0, 19928.0, 19923.0, 19921.0, 19920.0, 19918.0, 19907.0, 19882.0, 19895.0, 19891.0, 19886.0, 19919.0, 19933.0, 19945.0, 19952.0, 19966.0, 19942.0, 19917.0, 19930.0, 19959.0, 19933.0, 19929.0, 19934.0, 19929.0, 19920.0, 19925.0, 19955.0, 19938.0, 19946.0, 19932.0, 19949.0, 19948.0, 19943.0, 19946.0, 19971.0, 19987.0, 19971.0, 19995.0, 19989.0, 19959.0, 19932.0, 19948.0, 19928.0, 19931.0, 19956.0, 19985.0, 19976.0, 20013.0, 19985.0, 19952.0, 19936.0, 19960.0, 19936.0, 19935.0, 19947.0, 19959.0, 19937.0, 19929.0, 19950.0, 19922.0, 19913.0, 19906.0, 19915.0, 19912.0, 19944.0, 19973.0, 19998.0, 19977.0, 19966.0, 19987.0, 19959.0, 19929.0, 19929.0, 19917.0, 19904.0, 19916.0, 19916.0, 19911.0, 19903.0, 19934.0, 19920.0, 19924.0, 19948.0, 19917.0, 19928.0, 19946.0, 19932.0, 19943.0, 19961.0, 19963.0, 19957.0, 19972.0, 19989.0, 19977.0, 19972.0, 19984.0, 19966.0, 19956.0, 19976.0, 19960.0, 19965.0, 19963.0, 19967.0, 19951.0, 19948.0, 19966.0, 19937.0, 19921.0, 19913.0, 19932.0, 19927.0, 19949.0, 19967.0, 19935.0, 19933.0, 19954.0, 19929.0, 19902.0, 19909.0]
    },
    "slices": {}
  }
}