{
  "AcquisitionMatrixPE": 104,
  "AcquisitionNumber": 1,
  "AcquisitionTime": "14:21:24.527500",
  "BandwidthPerPixelPhaseEncode": 16.578,
  "BaseResolution": 104,
  "BodyPartExamined": "BRAIN",
  "ConsistencyInfo": "N4_VE11C_LATEST_20160120",
  "ConversionSoftware": "dcm2niix",
  "ConversionSoftwareVersion": "v1.0.20190410  GCC6.3.0",
  "DerivedVendorReportedEchoSpacing": 0.000580009,
  "DeviceSerialNumber": "166018",
  "DwellTime": 2.1e-06,
  "EchoTime": 0.037,
  "EchoTrainLength": 104,
  "EffectiveEchoSpacing": 0.000580009,
  "FlipAngle": 68,
  "ImageComments": "Unaliased_MB6_PE3_LB",
  "ImageOrientationPatientDICOM": [0.998959, -0.00538936, 0.0452903, 0.00958961, 0.995616, -0.0930419],
  "ImageType": [
    "ORIGINAL",
    "PRIMARY",
    "M",
    "MB",
    "ND",
    "MOSAIC"
],
  "ImagingFrequency": 123.191,
  "InPlanePhaseEncodingDirectionDICOM": "COL",
  "InstitutionAddress": "Washington_Place_6_NYC_NYC_US_10003",
  "InstitutionName": "NYU_-_CBI",
  "InstitutionalDepartmentName": "Department",
  "MRAcquisitionType": "2D",
  "MagneticFieldStrength": 3,
  "Manufacturer": "Siemens",
  "ManufacturersModelName": "Prisma",
  "Modality": "MR",
  "MultibandAccelerationFactor": 6,
  "PartialFourier": 1,
  "PatientPosition": "HFS",
  "PercentPhaseFOV": 100,
  "PhaseEncodingDirection": "j",
  "PhaseEncodingSteps": 104,
  "PhaseResolution": 1,
  "PixelBandwidth": 2290,
  "ProcedureStepDescription": "Investigators_Winawer",
  "ProtocolName": "task-sfprescaled_cmrr_mbepi_s6_2mm_66sl_PA_TR1.0",
  "PulseSequenceDetails": "%CustomerSeq%_cmrr_mbep2d_bold",
  "ReceiveCoilActiveElements": "HC1-7",
  "ReceiveCoilName": "HeadNeck_64",
  "ReconMatrixPE": 104,
  "RepetitionTime": 1,
  "SAR": 0.069977,
  "ScanOptions": "FS",
  "ScanningSequence": "EP",
  "SequenceName": "epfid2d1_104",
  "SequenceVariant": "SK_SS",
  "SeriesDescription": "task-sfprescaled_cmrr_mbepi_s6_2mm_66sl_PA_TR1.0",
  "SeriesNumber": 22,
  "ShimSetting": [290, -12622, -8536, 412, 11, 26, 145, 1],
  "SliceThickness": 2,
  "SliceTiming": [0, 0.535, 0.09, 0.625, 0.1775, 0.7125, 0.2675, 0.8025, 0.3575, 0.89, 0.445, 0, 0.535, 0.09, 0.625, 0.1775, 0.7125, 0.2675, 0.8025, 0.3575, 0.89, 0.445, 0, 0.535, 0.09, 0.625, 0.1775, 0.7125, 0.2675, 0.8025, 0.3575, 0.89, 0.445, 0, 0.535, 0.09, 0.625, 0.1775, 0.7125, 0.2675, 0.8025, 0.3575, 0.89, 0.445, 0, 0.535, 0.09, 0.625, 0.1775, 0.7125, 0.2675, 0.8025, 0.3575, 0.89, 0.445, 0, 0.535, 0.09, 0.625, 0.1775, 0.7125, 0.2675, 0.8025, 0.3575, 0.89, 0.445],
  "SoftwareVersions": "syngo_MR_E11",
  "SpacingBetweenSlices": 2,
  "StationName": "AWP166018",
  "TaskName": "sfprescaled",
  "TotalReadoutTime": 0.0597409,
  "TxRefAmp": 228.882,
  "WipMemBlock": "c7edefe1-41bb-4e87-b9e0-9cf432de8593||Sequence: R016 ve11c/master r/8780670; Nov 27 2017 15:05:12 by eja",
  "dcmmeta_affine": [
    [-1.9979186058044434, 0.019179219380021095, 0.08918056637048721, 105.54573822021484],
    [0.010778723284602165, 1.9912320375442505, -0.1867588758468628, -79.39433288574219],
    [0.0905805453658104, 0.18608388304710388, 1.9892631769180298, -66.26029968261719],
    [0.0, 0.0, 0.0, 1.0]
],
  "dcmmeta_reorient_transform": [
    [0.0, -1.0, 0.0, 103.0],
    [1.0, 0.0, 0.0, 0.0],
    [0.0, 0.0, 1.0, 0.0],
    [0.0, 0.0, 0.0, 1.0]
],
  "dcmmeta_shape": [104, 104, 66, 264],
  "dcmmeta_slice_dim": 2,
  "dcmmeta_version": 0.6,
  "global": {
    "const": {
      "AccessionNumber": "juLLetfq",
  "NumberOfVolumes": 264,
      "AcquisitionMatrix": [104, 0, 0, 104],
      "AngioFlag": "N",
      "BitsAllocated": 16,
      "BitsStored": 16,
      "BodyPartExamined": "BRAIN",
      "Columns": 936,
      "EchoNumbers": 1,
      "EchoTime": 37.0,
      "EchoTrainLength": 104,
      "FlipAngle": 68.0,
      "HighBit": 15,
      "ImageOrientationPatient": [0.99895933151222, -0.0053893617229, 0.04529027229865, 0.00958960937728, 0.99561600835794, -0.0930419437318],
      "ImagePositionPatient": [-946.6339183146, -949.57113348364, -7.3642652504894],
      "ImageType": [
        "ORIGINAL",
        "PRIMARY",
        "M",
        "MB",
        "ND",
        "MOSAIC"
],
      "ImagedNucleus": "1H",
      "ImagingFrequency": 123.191066,
      "InPlanePhaseEncodingDirection": "COL",
      "MRAcquisitionType": "2D",
      "MagneticFieldStrength": 3.0,
      "Manufacturer": "SIEMENS",
      "ManufacturerModelName": "Prisma",
      "Modality": "MR",
      "NumberOfAverages": 1.0,
      "NumberOfPhaseEncodingSteps": 104,
      "PercentPhaseFieldOfView": 100.0,
      "PercentSampling": 100.0,
      "PerformedProcedureStepStartTime": "133403.321000",
      "PhotometricInterpretation": "MONOCHROME2",
      "PixelBandwidth": 2290.0,
      "PixelRepresentation": 0,
      "PixelSpacing": [2.0, 2.0],
      "ProtocolName": "task-sfprescaled_cmrr_mbepi_s6_2mm_66sl_PA_TR1.0",
      "RepetitionTime": 1000.0,
      "Rows": 936,
      "SAR": 0.06997703584336,
      "SamplesPerPixel": 1,
      "ScanOptions": "FS",
      "ScanningSequence": "EP",
      "SequenceName": "epfid2d1_104",
      "SequenceVariant": [
        "SK",
        "SS"
],
      "SeriesDescription": "task-sfprescaled_cmrr_mbepi_s6_2mm_66sl_PA_TR1.0",
      "SeriesNumber": 22,
      "SeriesTime": "142220.318000",
      "SliceLocation": -53.784471009778,
      "SliceThickness": 2.0,
      "SmallestImagePixelValue": 0,
      "SoftwareVersions": "syngo MR E11",
      "SpacingBetweenSlices": 2.0000000443055,
      "SpecificCharacterSet": "ISO_IR 100",
      "StudyID": "1",
      "StudyTime": "133403.273000",
      "TransmitCoilName": "Body",
      "VariableFlipAngleFlag": "N",
      "WindowCenterWidthExplanation": "Algo1",
      "dBdt": 0.0},
    "slices": {}
  },
  "time": {
    "samples": {
      "AcquisitionNumber": [1, 2, 3, 4, 5, 6, 7, 8, 9, 10, 11, 12, 13, 14, 15, 16, 17, 18, 19, 20, 21, 22, 23, 24, 25, 26, 27, 28, 29, 30, 31, 32, 33, 34, 35, 36, 37, 38, 39, 40, 41, 42, 43, 44, 45, 46, 47, 48, 49, 50, 51, 52, 53, 54, 55, 56, 57, 58, 59, 60, 61, 62, 63, 64, 65, 66, 67, 68, 69, 70, 71, 72, 73, 74, 75, 76, 77, 78, 79, 80, 81, 82, 83, 84, 85, 86, 87, 88, 89, 90, 91, 92, 93, 94, 95, 96, 97, 98, 99, 100, 101, 102, 103, 104, 105, 106, 107, 108, 109, 110, 111, 112, 113, 114, 115, 116, 117, 118, 119, 120, 121, 122, 123, 124, 125, 126, 127, 128, 129, 130, 131, 132, 133, 134, 135, 136, 137, 138, 139, 140, 141, 142, 143, 144, 145, 146, 147, 148, 149, 150, 151, 152, 153, 154, 155, 156, 157, 158, 159, 160, 161, 162, 163, 164, 165, 166, 167, 168, 169, 170, 171, 172, 173, 174, 175, 176, 177, 178, 179, 180, 181, 182, 183, 184, 185, 186, 187, 188, 189, 190, 191, 192, 193, 194, 195, 196, 197, 198, 199, 200, 201, 202, 203, 204, 205, 206, 207, 208, 209, 210, 211, 212, 213, 214, 215, 216, 217, 218, 219, 220, 221, 222, 223, 224, 225, 226, 227, 228, 229, 230, 231, 232, 233, 234, 235, 236, 237, 238, 239, 240, 241, 242, 243, 244, 245, 246, 247, 248, 249, 250, 251, 252, 253, 254, 255, 256, 257, 258, 259, 260, 261, 262, 263, 264],
      "AcquisitionTime": ["142124.527500", "142125.527500", "142126.527500", "142127.527500", "142128.527500", "142129.527500", "142130.527500", "142131.527500", "142132.527500", "142133.527500", "142134.527500", "142135.527500", "142136.527500", "142137.527500", "142138.527500", "142139.527500", "142140.527500", "142141.527500", "142142.527500", "142143.527500", "142144.527500", "142145.527500", "142146.527500", "142147.527500", "142148.527500", "142149.527500", "142150.527500", "142151.527500", "142152.527500", "142153.527500", "142154.527500", "142155.527500", "142156.527500", "142157.527500", "142158.527500", "142159.527500", "142200.527500", "142201.527500", "142202.527500", "142203.527500", "142204.527500", "142205.527500", "142206.527500", "142207.527500", "142208.527500", "142209.527500", "142210.527500", "142211.527500", "142212.527500", "142213.527500", "142214.527500", "142215.527500", "142216.527500", "142217.527500", "142218.527500", "142219.527500", "142220.527500", "142221.527500", "142222.527500", "142223.527500", "142224.527500", "142225.527500", "142226.527500", "142227.527500", "142228.527500", "142229.527500", "142230.527500", "142231.527500", "142232.527500", "142233.527500", "142234.527500", "142235.527500", "142236.527500", "142237.527500", "142238.527500", "142239.527500", "142240.527500", "142241.527500", "142242.527500", "142243.527500", "142244.527500", "142245.527500", "142246.527500", "142247.527500", "142248.527500", "142249.527500", "142250.527500", "142251.527500", "142252.527500", "142253.527500", "142254.527500", "142255.527500", "142256.527500", "142257.527500", "142258.527500", "142259.527500", "142300.527500", "142301.527500", "142302.527500", "142303.527500", "142304.527500", "142305.527500", "142306.527500", "142307.527500", "142308.527500", "142309.527500", "142310.527500", "142311.527500", "142312.527500", "142313.527500", "142314.527500", "142315.527500", "142316.527500", "142317.527500", "142318.527500", "142319.527500", "142320.527500", "142321.527500", "142322.527500", "142323.527500", "142324.527500", "142325.527500", "142326.527500", "142327.527500", "142328.527500", "142329.527500", "142330.527500", "142331.527500", "142332.527500", "142333.527500", "142334.527500", "142335.527500", "142336.527500", "142337.527500", "142338.527500", "142339.527500", "142340.527500", "142341.527500", "142342.527500", "142343.527500", "142344.527500", "142345.527500", "142346.527500", "142347.527500", "142348.527500", "142349.527500", "142350.527500", "142351.527500", "142352.527500", "142353.527500", "142354.527500", "142355.527500", "142356.527500", "142357.527500", "142358.527500", "142359.527500", "142400.527500", "142401.527500", "142402.527500", "142403.527500", "142404.527500", "142405.527500", "142406.527500", "142407.527500", "142408.527500", "142409.527500", "142410.527500", "142411.527500", "142412.527500", "142413.527500", "142414.527500", "142415.527500", "142416.527500", "142417.527500", "142418.527500", "142419.527500", "142420.527500", "142421.527500", "142422.527500", "142423.527500", "142424.527500", "142425.527500", "142426.527500", "142427.527500", "142428.527500", "142429.527500", "142430.527500", "142431.527500", "142432.527500", "142433.527500", "142434.527500", "142435.527500", "142436.527500", "142437.527500", "142438.527500", "142439.527500", "142440.527500", "142441.527500", "142442.527500", "142443.527500", "142444.527500", "142445.527500", "142446.527500", "142447.527500", "142448.527500", "142449.527500", "142450.527500", "142451.527500", "142452.527500", "142453.527500", "142454.527500", "142455.527500", "142456.527500", "142457.527500", "142458.527500", "142459.527500", "142500.527500", "142501.527500", "142502.527500", "142503.527500", "142504.527500", "142505.527500", "142506.527500", "142507.527500", "142508.527500", "142509.527500", "142510.527500", "142511.527500", "142512.527500", "142513.527500", "142514.527500", "142515.527500", "142516.527500", "142517.527500", "142518.527500", "142519.527500", "142520.527500", "142521.527500", "142522.527500", "142523.527500", "142524.527500", "142525.527500", "142526.527500", "142527.527500", "142528.527500", "142529.527500", "142530.527500", "142531.527500", "142532.527500", "142533.527500", "142534.527500", "142535.527500", "142536.527500", "142537.527500", "142538.527500", "142539.527500", "142540.527500", "142541.527500", "142542.527500", "142543.527500", "142544.527500", "142545.527500", "142546.527500", "142547.527500"],
      "ContentTime": ["142220.321000", "142225.293000", "142225.296000", "142225.299000", "142225.302000", "142225.304000", "142225.307000", "142225.310000", "142230.293000", "142230.296000", "142230.299000", "142230.302000", "142230.304000", "142230.307000", "142230.310000", "142235.294000", "142235.297000", "142235.300000", "142235.303000", "142235.305000", "142235.308000", "142235.311000", "142240.294000", "142240.297000", "142240.309000", "142240.312000", "142240.315000", "142240.318000", "142240.321000", "142245.293000", "142245.296000", "142245.299000", "142245.302000", "142245.305000", "142245.307000", "142245.310000", "142250.294000", "142250.297000", "142250.300000", "142250.303000", "142250.306000", "142250.308000", "142250.311000", "142255.294000", "142255.318000", "142255.321000", "142255.323000", "142255.326000", "142255.329000", "142255.333000", "142300.293000", "142300.296000", "142300.305000", "142300.308000", "142300.311000", "142300.314000", "142300.317000", "142300.319000", "142305.293000", "142305.296000", "142305.299000", "142305.302000", "142305.305000", "142305.308000", "142305.311000", "142310.294000", "142310.297000", "142310.300000", "142310.303000", "142310.305000", "142310.308000", "142310.311000", "142315.294000", "142315.297000", "142315.300000", "142315.303000", "142315.305000", "142315.308000", "142315.311000", "142320.293000", "142320.296000", "142320.299000", "142320.302000", "142320.305000", "142320.307000", "142320.315000", "142325.294000", "142325.297000", "142325.300000", "142325.303000", "142325.306000", "142325.308000", "142325.311000", "142330.294000", "142330.297000", "142330.300000", "142330.303000", "142330.305000", "142330.308000", "142330.311000", "142335.293000", "142335.296000", "142335.299000", "142335.302000", "142335.305000", "142335.307000", "142335.310000", "142340.293000", "142340.296000", "142340.299000", "142340.302000", "142340.305000", "142340.308000", "142340.310000", "142345.294000", "142345.297000", "142345.300000", "142345.303000", "142345.306000", "142345.309000", "142345.311000", "142350.294000", "142350.297000", "142350.300000", "142350.303000", "142350.306000", "142350.309000", "142350.312000", "142355.293000", "142355.296000", "142355.299000", "142355.302000", "142355.304000", "142355.307000", "142355.310000", "142355.313000", "142400.294000", "142400.297000", "142400.300000", "142400.303000", "142400.305000", "142400.308000", "142400.311000", "142405.295000", "142405.298000", "142405.301000", "142405.304000", "142405.307000", "142405.310000", "142410.293000", "142410.296000", "142410.299000", "142410.303000", "142410.306000", "142410.310000", "142410.313000", "142415.293000", "142415.296000", "142415.299000", "142415.301000", "142415.304000", "142415.307000", "142415.310000", "142415.313000", "142420.295000", "142420.298000", "142420.301000", "142420.304000", "142420.307000", "142420.310000", "142420.320000", "142425.294000", "142425.314000", "142425.317000", "142425.320000", "142425.323000", "142425.325000", "142425.328000", "142430.293000", "142430.296000", "142430.299000", "142430.302000", "142430.304000", "142430.307000", "142435.294000", "142435.297000", "142435.301000", "142435.304000", "142435.307000", "142440.294000", "142440.297000", "142440.300000", "142440.303000", "142440.306000", "142445.293000", "142445.296000", "142445.299000", "142445.302000", "142445.305000", "142450.293000", "142450.296000", "142450.299000", "142450.302000", "142450.305000", "142455.294000", "142455.297000", "142455.300000", "142455.303000", "142455.305000", "142500.294000", "142500.297000", "142500.300000", "142500.303000", "142500.306000", "142505.293000", "142505.296000", "142505.299000", "142505.302000", "142505.305000", "142510.294000", "142510.297000", "142510.300000", "142510.303000", "142510.306000", "142515.294000", "142515.297000", "142515.300000", "142515.303000", "142515.305000", "142520.293000", "142520.296000", "142520.299000", "142520.302000", "142520.304000", "142525.301000", "142525.304000", "142525.307000", "142525.310000", "142525.313000", "142530.294000", "142530.297000", "142530.300000", "142530.303000", "142530.306000", "142535.294000", "142535.297000", "142535.300000", "142535.303000", "142535.306000", "142540.293000", "142540.296000", "142540.299000", "142540.302000", "142540.304000", "142545.294000", "142545.297000", "142545.300000", "142545.303000", "142545.305000", "142549.661000", "142549.664000", "142549.667000", "142549.670000", "142549.673000"],
      "InstanceCreationTime": ["142220.321000", "142225.293000", "142225.296000", "142225.299000", "142225.302000", "142225.304000", "142225.307000", "142225.310000", "142230.293000", "142230.296000", "142230.299000", "142230.302000", "142230.304000", "142230.307000", "142230.310000", "142235.294000", "142235.297000", "142235.300000", "142235.303000", "142235.305000", "142235.308000", "142235.311000", "142240.294000", "142240.297000", "142240.309000", "142240.312000", "142240.315000", "142240.318000", "142240.321000", "142245.293000", "142245.296000", "142245.299000", "142245.302000", "142245.305000", "142245.307000", "142245.310000", "142250.294000", "142250.297000", "142250.300000", "142250.303000", "142250.306000", "142250.308000", "142250.311000", "142255.294000", "142255.318000", "142255.321000", "142255.323000", "142255.326000", "142255.329000", "142255.333000", "142300.293000", "142300.296000", "142300.305000", "142300.308000", "142300.311000", "142300.314000", "142300.317000", "142300.319000", "142305.293000", "142305.296000", "142305.299000", "142305.302000", "142305.305000", "142305.308000", "142305.311000", "142310.294000", "142310.297000", "142310.300000", "142310.303000", "142310.305000", "142310.308000", "142310.311000", "142315.294000", "142315.297000", "142315.300000", "142315.303000", "142315.305000", "142315.308000", "142315.311000", "142320.293000", "142320.296000", "142320.299000", "142320.302000", "142320.305000", "142320.307000", "142320.315000", "142325.294000", "142325.297000", "142325.300000", "142325.303000", "142325.306000", "142325.308000", "142325.311000", "142330.294000", "142330.297000", "142330.300000", "142330.303000", "142330.305000", "142330.308000", "142330.311000", "142335.293000", "142335.296000", "142335.299000", "142335.302000", "142335.305000", "142335.307000", "142335.310000", "142340.293000", "142340.296000", "142340.299000", "142340.302000", "142340.305000", "142340.308000", "142340.310000", "142345.294000", "142345.297000", "142345.300000", "142345.303000", "142345.306000", "142345.309000", "142345.311000", "142350.294000", "142350.297000", "142350.300000", "142350.303000", "142350.306000", "142350.309000", "142350.312000", "142355.293000", "142355.296000", "142355.299000", "142355.302000", "142355.304000", "142355.307000", "142355.310000", "142355.313000", "142400.294000", "142400.297000", "142400.300000", "142400.303000", "142400.305000", "142400.308000", "142400.311000", "142405.295000", "142405.298000", "142405.301000", "142405.304000", "142405.307000", "142405.310000", "142410.293000", "142410.296000", "142410.299000", "142410.303000", "142410.306000", "142410.310000", "142410.313000", "142415.293000", "142415.296000", "142415.299000", "142415.301000", "142415.304000", "142415.307000", "142415.310000", "142415.313000", "142420.295000", "142420.298000", "142420.301000", "142420.304000", "142420.307000", "142420.310000", "142420.320000", "142425.294000", "142425.314000", "142425.317000", "142425.320000", "142425.323000", "142425.325000", "142425.328000", "142430.293000", "142430.296000", "142430.299000", "142430.302000", "142430.304000", "142430.307000", "142435.294000", "142435.297000", "142435.301000", "142435.304000", "142435.307000", "142440.294000", "142440.297000", "142440.300000", "142440.303000", "142440.306000", "142445.293000", "142445.296000", "142445.299000", "142445.302000", "142445.305000", "142450.293000", "142450.296000", "142450.299000", "142450.302000", "142450.305000", "142455.294000", "142455.297000", "142455.300000", "142455.303000", "142455.305000", "142500.294000", "142500.297000", "142500.300000", "142500.303000", "142500.306000", "142505.293000", "142505.296000", "142505.299000", "142505.302000", "142505.305000", "142510.294000", "142510.297000", "142510.300000", "142510.303000", "142510.306000", "142515.294000", "142515.297000", "142515.300000", "142515.303000", "142515.305000", "142520.293000", "142520.296000", "142520.299000", "142520.302000", "142520.304000", "142525.301000", "142525.304000", "142525.307000", "142525.310000", "142525.313000", "142530.294000", "142530.297000", "142530.300000", "142530.303000", "142530.306000", "142535.294000", "142535.297000", "142535.300000", "142535.303000", "142535.306000", "142540.293000", "142540.296000", "142540.299000", "142540.302000", "142540.304000", "142545.294000", "142545.297000", "142545.300000", "142545.303000", "142545.305000", "142549.661000", "142549.664000", "142549.667000", "142549.670000", "142549.673000"],
      "InstanceNumber": [1, 2, 3, 4, 5, 6, 7, 8, 9, 10, 11, 12, 13, 14, 15, 16, 17, 18, 19, 20, 21, 22, 23, 24, 25, 26, 27, 28, 29, 30, 31, 32, 33, 34, 35, 36, 37, 38, 39, 40, 41, 42, 43, 44, 45, 46, 47, 48, 49, 50, 51, 52, 53, 54, 55, 56, 57, 58, 59, 60, 61, 62, 63, 64, 65, 66, 67, 68, 69, 70, 71, 72, 73, 74, 75, 76, 77, 78, 79, 80, 81, 82, 83, 84, 85, 86, 87, 88, 89, 90, 91, 92, 93, 94, 95, 96, 97, 98, 99, 100, 101, 102, 103, 104, 105, 106, 107, 108, 109, 110, 111, 112, 113, 114, 115, 116, 117, 118, 119, 120, 121, 122, 123, 124, 125, 126, 127, 128, 129, 130, 131, 132, 133, 134, 135, 136, 137, 138, 139, 140, 141, 142, 143, 144, 145, 146, 147, 148, 149, 150, 151, 152, 153, 154, 155, 156, 157, 158, 159, 160, 161, 162, 163, 164, 165, 166, 167, 168, 169, 170, 171, 172, 173, 174, 175, 176, 177, 178, 179, 180, 181, 182, 183, 184, 185, 186, 187, 188, 189, 190, 191, 192, 193, 194, 195, 196, 197, 198, 199, 200, 201, 202, 203, 204, 205, 206, 207, 208, 209, 210, 211, 212, 213, 214, 215, 216, 217, 218, 219, 220, 221, 222, 223, 224, 225, 226, 227, 228, 229, 230, 231, 232, 233, 234, 235, 236, 237, 238, 239, 240, 241, 242, 243, 244, 245, 246, 247, 248, 249, 250, 251, 252, 253, 254, 255, 256, 257, 258, 259, 260, 261, 262, 263, 264],
      "LargestImagePixelValue": [30885, 30075, 29648, 29553, 29314, 28915, 28886, 29379, 29201, 28623, 29088, 28822, 28449, 28601, 28949, 28536, 28702, 29280, 29104, 28536, 28872, 29443, 29026, 28477, 29254, 28696, 28722, 29396, 28856, 28628, 28724, 28659, 28598, 28576, 29665, 28877, 28658, 29221, 28428, 28632, 29350, 29278, 28827, 28663, 28870, 29297, 29223, 29429, 28731, 28367, 28814, 29108, 28983, 28743, 29042, 29245, 28534, 28143, 28959, 28381, 28460, 28925, 29011, 28379, 29364, 29105, 29104, 28610, 29344, 28698, 28447, 29260, 29020, 29217, 29078, 29026, 29098, 29054, 29256, 29273, 28930, 28858, 29057, 29333, 29207, 29388, 28982, 29425, 29077, 28883, 28345, 29368, 28850, 28669, 29010, 28657, 28606, 28581, 28846, 28693, 29050, 28535, 28732, 28928, 29172, 28631, 28392, 29429, 29438, 28712, 28964, 28696, 28809, 28571, 29201, 28550, 28684, 28829, 28443, 28638, 28787, 28745, 28787, 29255, 29160, 28898, 29410, 29084, 28698, 28750, 28831, 28519, 28553, 29002, 28995, 28694, 28766, 29051, 28625, 28768, 28851, 28681, 28538, 29489, 29033, 28668, 29234, 28496, 28388, 29120, 28515, 28796, 29244, 28662, 28762, 28911, 29318, 27999, 28415, 29043, 28265, 28296, 29162, 28504, 28443, 28745, 28492, 28360, 29340, 28708, 28319, 29160, 28472, 28289, 28250, 28769, 28371, 28548, 29328, 29077, 28699, 29256, 29125, 28285, 28488, 28939, 28356, 28447, 29200, 28265, 28245, 28347, 28425, 28171, 28392, 28795, 27960, 27954, 28860, 27897, 27941, 28755, 28093, 27930, 28992, 28180, 28475, 28264, 28761, 28577, 28315, 28625, 29057, 28401, 28325, 28655, 28030, 27956, 28044, 28187, 27890, 27954, 28856, 28197, 27883, 28599, 28427, 28243, 28186, 29094, 28453, 28377, 28497, 28386, 28467, 28890, 28316, 28533, 28427, 28208, 28044, 28263, 28348, 28088, 28569, 28263, 28095, 28292, 28555, 28396, 28271, 28650, 28501, 28250, 28554, 27989, 28342, 28488, 28023, 28271, 28315, 28544, 28687, 28730],
      "WindowCenter": [9536.0, 9480.0, 9452.0, 9443.0, 9423.0, 9409.0, 9416.0, 9436.0, 9430.0, 9419.0, 9440.0, 9425.0, 9410.0, 9416.0, 9416.0, 9408.0, 9413.0, 9427.0, 9412.0, 9400.0, 9414.0, 9418.0, 9411.0, 9406.0, 9421.0, 9413.0, 9422.0, 9444.0, 9423.0, 9410.0, 9418.0, 9408.0, 9401.0, 9408.0, 9424.0, 9406.0, 9407.0, 9414.0, 9401.0, 9400.0, 9417.0, 9409.0, 9403.0, 9420.0, 9429.0, 9442.0, 9437.0, 9436.0, 9413.0, 9398.0, 9397.0, 9400.0, 9392.0, 9386.0, 9401.0, 9393.0, 9386.0, 9381.0, 9389.0, 9388.0, 9387.0, 9389.0, 9387.0, 9372.0, 9398.0, 9393.0, 9392.0, 9388.0, 9406.0, 9393.0, 9389.0, 9403.0, 9399.0, 9398.0, 9401.0, 9394.0, 9393.0, 9392.0, 9383.0, 9382.0, 9393.0, 9403.0, 9419.0, 9433.0, 9436.0, 9426.0, 9411.0, 9416.0, 9402.0, 9393.0, 9382.0, 9398.0, 9378.0, 9383.0, 9391.0, 9377.0, 9364.0, 9378.0, 9378.0, 9377.0, 9385.0, 9371.0, 9376.0, 9384.0, 9397.0, 9394.0, 9397.0, 9425.0, 9423.0, 9404.0, 9418.0, 9397.0, 9392.0, 9387.0, 9400.0, 9388.0, 9392.0, 9396.0, 9379.0, 9377.0, 9379.0, 9369.0, 9367.0, 9376.0, 9382.0, 9383.0, 9400.0, 9400.0, 9395.0, 9404.0, 9404.0, 9396.0, 9389.0, 9403.0, 9392.0, 9385.0, 9394.0, 9400.0, 9395.0, 9405.0, 9422.0, 9415.0, 9400.0, 9416.0, 9394.0, 9385.0, 9392.0, 9379.0, 9378.0, 9390.0, 9379.0, 9392.0, 9410.0, 9403.0, 9396.0, 9397.0, 9399.0, 9366.0, 9371.0, 9385.0, 9365.0, 9356.0, 9375.0, 9370.0, 9376.0, 9385.0, 9379.0, 9381.0, 9401.0, 9388.0, 9375.0, 9384.0, 9363.0, 9355.0, 9364.0, 9384.0, 9389.0, 9407.0, 9435.0, 9421.0, 9405.0, 9404.0, 9387.0, 9359.0, 9371.0, 9378.0, 9371.0, 9379.0, 9391.0, 9374.0, 9373.0, 9372.0, 9372.0, 9364.0, 9370.0, 9378.0, 9357.0, 9358.0, 9379.0, 9360.0, 9359.0, 9377.0, 9366.0, 9368.0, 9401.0, 9383.0, 9395.0, 9398.0, 9407.0, 9415.0, 9418.0, 9427.0, 9431.0, 9409.0, 9400.0, 9399.0, 9376.0, 9367.0, 9375.0, 9368.0, 9367.0, 9368.0, 9388.0, 9375.0, 9368.0, 9383.0, 9381.0, 9359.0, 9363.0, 9383.0, 9364.0, 9372.0, 9374.0, 9380.0, 9381.0, 9380.0, 9367.0, 9374.0, 9374.0, 9369.0, 9375.0, 9376.0, 9388.0, 9385.0, 9409.0, 9401.0, 9396.0, 9396.0, 9401.0, 9384.0, 9375.0, 9381.0, 9372.0, 9364.0, 9374.0, 9360.0, 9378.0, 9389.0, 9374.0, 9372.0, 9375.0, 9383.0, 9388.0, 9389.0],
      "WindowWidth": [20312.0, 20169.0, 20098.0, 20075.0, 20023.0, 19993.0, 20007.0, 20043.0, 20030.0, 20013.0, 20054.0, 20021.0, 19993.0, 20008.0, 20004.0, 19986.0, 19995.0, 20023.0, 19991.0, 19973.0, 20001.0, 20004.0, 19989.0, 19983.0, 20013.0, 19996.0, 20014.0, 20060.0, 20019.0, 19996.0, 20014.0, 19990.0, 19976.0, 19993.0, 20017.0, 19981.0, 19987.0, 20000.0, 19975.0, 19973.0, 20001.0, 19984.0, 19975.0, 20009.0, 20030.0, 20053.0, 20049.0, 20042.0, 19995.0, 19966.0, 19963.0, 19963.0, 19946.0, 19940.0, 19967.0, 19951.0, 19938.0, 19932.0, 19948.0, 19944.0, 19942.0, 19948.0, 19938.0, 19909.0, 19957.0, 19949.0, 19947.0, 19946.0, 19975.0, 19949.0, 19946.0, 19972.0, 19960.0, 19957.0, 19968.0, 19952.0, 19950.0, 19949.0, 19927.0, 19924.0, 19949.0, 19974.0, 20006.0, 20033.0, 20043.0, 20020.0, 19989.0, 19997.0, 19968.0, 19950.0, 19933.0, 19955.0, 19919.0, 19928.0, 19945.0, 19916.0, 19894.0, 19921.0, 19917.0, 19913.0, 19932.0, 19905.0, 19911.0, 19931.0, 19956.0, 19952.0, 19963.0, 20017.0, 20011.0, 19977.0, 20005.0, 19962.0, 19948.0, 19941.0, 19964.0, 19939.0, 19947.0, 19958.0, 19923.0, 19917.0, 19923.0, 19901.0, 19895.0, 19914.0, 19926.0, 19928.0, 19966.0, 19964.0, 19956.0, 19980.0, 19975.0, 19960.0, 19947.0, 19972.0, 19945.0, 19932.0, 19952.0, 19962.0, 19955.0, 19979.0, 20014.0, 20000.0, 19972.0, 19998.0, 19952.0, 19935.0, 19947.0, 19922.0, 19922.0, 19941.0, 19922.0, 19948.0, 19985.0, 19972.0, 19958.0, 19962.0, 19959.0, 19899.0, 19905.0, 19930.0, 19894.0, 19876.0, 19910.0, 19902.0, 19911.0, 19933.0, 19921.0, 19929.0, 19967.0, 19942.0, 19919.0, 19930.0, 19890.0, 19873.0, 19892.0, 19929.0, 19947.0, 19985.0, 20039.0, 20011.0, 19979.0, 19976.0, 19936.0, 19884.0, 19907.0, 19919.0, 19907.0, 19924.0, 19945.0, 19916.0, 19915.0, 19912.0, 19908.0, 19894.0, 19902.0, 19920.0, 19881.0, 19881.0, 19923.0, 19888.0, 19887.0, 19917.0, 19896.0, 19904.0, 19964.0, 19935.0, 19956.0, 19966.0, 19985.0, 20001.0, 20013.0, 20034.0, 20033.0, 19990.0, 19970.0, 19967.0, 19922.0, 19903.0, 19920.0, 19904.0, 19903.0, 19908.0, 19942.0, 19919.0, 19908.0, 19934.0, 19927.0, 19885.0, 19889.0, 19925.0, 19891.0, 19908.0, 19914.0, 19925.0, 19931.0, 19925.0, 19902.0, 19918.0, 19918.0, 19907.0, 19920.0, 19921.0, 19943.0, 19942.0, 19990.0, 19975.0, 19964.0, 19966.0, 19973.0, 19936.0, 19920.0, 19928.0, 19907.0, 19893.0, 19913.0, 19888.0, 19916.0, 19942.0, 19914.0, 19908.0, 19918.0, 19933.0, 19941.0, 19941.0]
    },
    "slices": {}
  }
}