{
  "AcquisitionMatrixPE": 104,
  "AcquisitionNumber": 1,
  "AcquisitionTime": "14:36:41.575000",
  "BandwidthPerPixelPhaseEncode": 16.578,
  "BaseResolution": 104,
  "BodyPartExamined": "BRAIN",
  "ConsistencyInfo": "N4_VE11C_LATEST_20160120",
  "ConversionSoftware": "dcm2niix",
  "ConversionSoftwareVersion": "v1.0.20190410  GCC6.3.0",
  "DerivedVendorReportedEchoSpacing": 0.000580009,
  "DeviceSerialNumber": "166018",
  "DwellTime": 2.1e-06,
  "EchoTime": 0.037,
  "EchoTrainLength": 104,
  "EffectiveEchoSpacing": 0.000580009,
  "FlipAngle": 68,
  "ImageComments": "Unaliased_MB6_PE3_LB",
  "ImageOrientationPatientDICOM": [0.998959, -0.00538936, 0.0452903, 0.00958961, 0.995616, -0.0930419],
  "ImageType": [
    "ORIGINAL",
    "PRIMARY",
    "M",
    "MB",
    "ND",
    "MOSAIC"
],
  "ImagingFrequency": 123.191,
  "InPlanePhaseEncodingDirectionDICOM": "COL",
  "InstitutionAddress": "Washington_Place_6_NYC_NYC_US_10003",
  "InstitutionName": "NYU_-_CBI",
  "InstitutionalDepartmentName": "Department",
  "MRAcquisitionType": "2D",
  "MagneticFieldStrength": 3,
  "Manufacturer": "Siemens",
  "ManufacturersModelName": "Prisma",
  "Modality": "MR",
  "MultibandAccelerationFactor": 6,
  "PartialFourier": 1,
  "PatientPosition": "HFS",
  "PercentPhaseFOV": 100,
  "PhaseEncodingDirection": "j",
  "PhaseEncodingSteps": 104,
  "PhaseResolution": 1,
  "PixelBandwidth": 2290,
  "ProcedureStepDescription": "Investigators_Winawer",
  "ProtocolName": "task-sfprescaled_cmrr_mbepi_s6_2mm_66sl_PA_TR1.0",
  "PulseSequenceDetails": "%CustomerSeq%_cmrr_mbep2d_bold",
  "ReceiveCoilActiveElements": "HC1-7",
  "ReceiveCoilName": "HeadNeck_64",
  "ReconMatrixPE": 104,
  "RepetitionTime": 1,
  "SAR": 0.069977,
  "ScanOptions": "FS",
  "ScanningSequence": "EP",
  "SequenceName": "epfid2d1_104",
  "SequenceVariant": "SK_SS",
  "SeriesDescription": "task-sfprescaled_cmrr_mbepi_s6_2mm_66sl_PA_TR1.0",
  "SeriesNumber": 28,
  "ShimSetting": [290, -12622, -8536, 412, 11, 26, 145, 1],
  "SliceThickness": 2,
  "SliceTiming": [0, 0.535, 0.09, 0.6225, 0.1775, 0.7125, 0.2675, 0.8025, 0.355, 0.89, 0.445, 0, 0.535, 0.09, 0.6225, 0.1775, 0.7125, 0.2675, 0.8025, 0.355, 0.89, 0.445, 0, 0.535, 0.09, 0.6225, 0.1775, 0.7125, 0.2675, 0.8025, 0.355, 0.89, 0.445, 0, 0.535, 0.09, 0.6225, 0.1775, 0.7125, 0.2675, 0.8025, 0.355, 0.89, 0.445, 0, 0.535, 0.09, 0.6225, 0.1775, 0.7125, 0.2675, 0.8025, 0.355, 0.89, 0.445, 0, 0.535, 0.09, 0.6225, 0.1775, 0.7125, 0.2675, 0.8025, 0.355, 0.89, 0.445],
  "SoftwareVersions": "syngo_MR_E11",
  "SpacingBetweenSlices": 2,
  "StationName": "AWP166018",
  "TaskName": "sfprescaled",
  "TotalReadoutTime": 0.0597409,
  "TxRefAmp": 228.882,
  "WipMemBlock": "c7edefe1-41bb-4e87-b9e0-9cf432de8593||Sequence: R016 ve11c/master r/8780670; Nov 27 2017 15:05:12 by eja",
  "dcmmeta_affine": [
    [-1.9979186058044434, 0.019179219380021095, 0.08918056637048721, 105.54573822021484],
    [0.010778723284602165, 1.9912320375442505, -0.1867588758468628, -79.39433288574219],
    [0.0905805453658104, 0.18608388304710388, 1.9892631769180298, -66.26029968261719],
    [0.0, 0.0, 0.0, 1.0]
],
  "dcmmeta_reorient_transform": [
    [0.0, -1.0, 0.0, 103.0],
    [1.0, 0.0, 0.0, 0.0],
    [0.0, 0.0, 1.0, 0.0],
    [0.0, 0.0, 0.0, 1.0]
],
  "dcmmeta_shape": [104, 104, 66, 264],
  "dcmmeta_slice_dim": 2,
  "dcmmeta_version": 0.6,
  "global": {
    "const": {
      "AccessionNumber": "juLLetfq",
  "NumberOfVolumes": 264,
      "AcquisitionMatrix": [104, 0, 0, 104],
      "AngioFlag": "N",
      "BitsAllocated": 16,
      "BitsStored": 16,
      "BodyPartExamined": "BRAIN",
      "Columns": 936,
      "EchoNumbers": 1,
      "EchoTime": 37.0,
      "EchoTrainLength": 104,
      "FlipAngle": 68.0,
      "HighBit": 15,
      "ImageOrientationPatient": [0.99895933151222, -0.0053893617229, 0.04529027229865, 0.00958960937728, 0.99561600835794, -0.0930419437318],
      "ImagePositionPatient": [-946.6339183146, -949.57113348364, -7.3642652504894],
      "ImageType": [
        "ORIGINAL",
        "PRIMARY",
        "M",
        "MB",
        "ND",
        "MOSAIC"
],
      "ImagedNucleus": "1H",
      "ImagingFrequency": 123.191066,
      "InPlanePhaseEncodingDirection": "COL",
      "MRAcquisitionType": "2D",
      "MagneticFieldStrength": 3.0,
      "Manufacturer": "SIEMENS",
      "ManufacturerModelName": "Prisma",
      "Modality": "MR",
      "NumberOfAverages": 1.0,
      "NumberOfPhaseEncodingSteps": 104,
      "PercentPhaseFieldOfView": 100.0,
      "PercentSampling": 100.0,
      "PerformedProcedureStepStartTime": "133403.321000",
      "PhotometricInterpretation": "MONOCHROME2",
      "PixelBandwidth": 2290.0,
      "PixelRepresentation": 0,
      "PixelSpacing": [2.0, 2.0],
      "ProtocolName": "task-sfprescaled_cmrr_mbepi_s6_2mm_66sl_PA_TR1.0",
      "RepetitionTime": 1000.0,
      "Rows": 936,
      "SAR": 0.06997703584336,
      "SamplesPerPixel": 1,
      "ScanOptions": "FS",
      "ScanningSequence": "EP",
      "SequenceName": "epfid2d1_104",
      "SequenceVariant": [
        "SK",
        "SS"
],
      "SeriesDescription": "task-sfprescaled_cmrr_mbepi_s6_2mm_66sl_PA_TR1.0",
      "SeriesNumber": 28,
      "SeriesTime": "143732.180000",
      "SliceLocation": -53.784471009778,
      "SliceThickness": 2.0,
      "SmallestImagePixelValue": 0,
      "SoftwareVersions": "syngo MR E11",
      "SpacingBetweenSlices": 2.0000000443055,
      "SpecificCharacterSet": "ISO_IR 100",
      "StudyID": "1",
      "StudyTime": "133403.273000",
      "TransmitCoilName": "Body",
      "VariableFlipAngleFlag": "N",
      "WindowCenterWidthExplanation": "Algo1",
      "dBdt": 0.0},
    "slices": {}
  },
  "time": {
    "samples": {
      "AcquisitionNumber": [1, 2, 3, 4, 5, 6, 7, 8, 9, 10, 11, 12, 13, 14, 15, 16, 17, 18, 19, 20, 21, 22, 23, 24, 25, 26, 27, 28, 29, 30, 31, 32, 33, 34, 35, 36, 37, 38, 39, 40, 41, 42, 43, 44, 45, 46, 47, 48, 49, 50, 51, 52, 53, 54, 55, 56, 57, 58, 59, 60, 61, 62, 63, 64, 65, 66, 67, 68, 69, 70, 71, 72, 73, 74, 75, 76, 77, 78, 79, 80, 81, 82, 83, 84, 85, 86, 87, 88, 89, 90, 91, 92, 93, 94, 95, 96, 97, 98, 99, 100, 101, 102, 103, 104, 105, 106, 107, 108, 109, 110, 111, 112, 113, 114, 115, 116, 117, 118, 119, 120, 121, 122, 123, 124, 125, 126, 127, 128, 129, 130, 131, 132, 133, 134, 135, 136, 137, 138, 139, 140, 141, 142, 143, 144, 145, 146, 147, 148, 149, 150, 151, 152, 153, 154, 155, 156, 157, 158, 159, 160, 161, 162, 163, 164, 165, 166, 167, 168, 169, 170, 171, 172, 173, 174, 175, 176, 177, 178, 179, 180, 181, 182, 183, 184, 185, 186, 187, 188, 189, 190, 191, 192, 193, 194, 195, 196, 197, 198, 199, 200, 201, 202, 203, 204, 205, 206, 207, 208, 209, 210, 211, 212, 213, 214, 215, 216, 217, 218, 219, 220, 221, 222, 223, 224, 225, 226, 227, 228, 229, 230, 231, 232, 233, 234, 235, 236, 237, 238, 239, 240, 241, 242, 243, 244, 245, 246, 247, 248, 249, 250, 251, 252, 253, 254, 255, 256, 257, 258, 259, 260, 261, 262, 263, 264],
      "AcquisitionTime": ["143641.575000", "143642.575000", "143643.575000", "143644.575000", "143645.575000", "143646.575000", "143647.575000", "143648.575000", "143649.575000", "143650.575000", "143651.575000", "143652.575000", "143653.575000", "143654.575000", "143655.575000", "143656.575000", "143657.575000", "143658.575000", "143659.575000", "143700.575000", "143701.575000", "143702.575000", "143703.575000", "143704.575000", "143705.575000", "143706.575000", "143707.575000", "143708.575000", "143709.575000", "143710.575000", "143711.575000", "143712.575000", "143713.575000", "143714.575000", "143715.575000", "143716.575000", "143717.575000", "143718.575000", "143719.575000", "143720.575000", "143721.575000", "143722.575000", "143723.575000", "143724.575000", "143725.575000", "143726.575000", "143727.575000", "143728.575000", "143729.575000", "143730.575000", "143731.575000", "143732.575000", "143733.575000", "143734.575000", "143735.575000", "143736.575000", "143737.575000", "143738.575000", "143739.575000", "143740.575000", "143741.575000", "143742.575000", "143743.575000", "143744.575000", "143745.575000", "143746.575000", "143747.575000", "143748.575000", "143749.575000", "143750.575000", "143751.575000", "143752.575000", "143753.575000", "143754.575000", "143755.575000", "143756.575000", "143757.575000", "143758.575000", "143759.575000", "143800.575000", "143801.575000", "143802.575000", "143803.575000", "143804.575000", "143805.575000", "143806.575000", "143807.575000", "143808.575000", "143809.575000", "143810.575000", "143811.575000", "143812.575000", "143813.575000", "143814.575000", "143815.575000", "143816.575000", "143817.575000", "143818.575000", "143819.575000", "143820.575000", "143821.575000", "143822.575000", "143823.575000", "143824.575000", "143825.575000", "143826.575000", "143827.575000", "143828.575000", "143829.575000", "143830.575000", "143831.575000", "143832.575000", "143833.575000", "143834.575000", "143835.575000", "143836.575000", "143837.575000", "143838.575000", "143839.575000", "143840.575000", "143841.575000", "143842.575000", "143843.575000", "143844.575000", "143845.575000", "143846.575000", "143847.575000", "143848.575000", "143849.575000", "143850.575000", "143851.575000", "143852.575000", "143853.575000", "143854.575000", "143855.575000", "143856.575000", "143857.575000", "143858.575000", "143859.575000", "143900.575000", "143901.575000", "143902.575000", "143903.575000", "143904.575000", "143905.575000", "143906.575000", "143907.575000", "143908.575000", "143909.575000", "143910.575000", "143911.575000", "143912.575000", "143913.575000", "143914.575000", "143915.575000", "143916.575000", "143917.575000", "143918.575000", "143919.575000", "143920.575000", "143921.575000", "143922.575000", "143923.575000", "143924.575000", "143925.575000", "143926.575000", "143927.575000", "143928.575000", "143929.575000", "143930.575000", "143931.575000", "143932.575000", "143933.575000", "143934.575000", "143935.575000", "143936.575000", "143937.575000", "143938.575000", "143939.575000", "143940.575000", "143941.575000", "143942.575000", "143943.575000", "143944.575000", "143945.575000", "143946.575000", "143947.575000", "143948.575000", "143949.575000", "143950.575000", "143951.575000", "143952.575000", "143953.575000", "143954.575000", "143955.575000", "143956.575000", "143957.575000", "143958.575000", "143959.575000", "144000.575000", "144001.575000", "144002.575000", "144003.575000", "144004.575000", "144005.575000", "144006.575000", "144007.575000", "144008.575000", "144009.575000", "144010.575000", "144011.575000", "144012.575000", "144013.575000", "144014.575000", "144015.575000", "144016.575000", "144017.575000", "144018.575000", "144019.575000", "144020.575000", "144021.575000", "144022.575000", "144023.575000", "144024.575000", "144025.575000", "144026.575000", "144027.575000", "144028.575000", "144029.575000", "144030.575000", "144031.575000", "144032.575000", "144033.575000", "144034.575000", "144035.575000", "144036.575000", "144037.575000", "144038.575000", "144039.575000", "144040.575000", "144041.575000", "144042.575000", "144043.575000", "144044.575000", "144045.575000", "144046.575000", "144047.575000", "144048.575000", "144049.575000", "144050.575000", "144051.575000", "144052.575000", "144053.575000", "144054.575000", "144055.575000", "144056.575000", "144057.575000", "144058.575000", "144059.575000", "144100.575000", "144101.575000", "144102.575000", "144103.575000", "144104.575000"],
      "ContentTime": ["143732.183000", "143732.186000", "143737.152000", "143737.155000", "143737.158000", "143737.161000", "143737.164000", "143737.166000", "143737.177000", "143742.152000", "143742.155000", "143742.158000", "143742.161000", "143742.170000", "143742.172000", "143742.175000", "143747.152000", "143747.155000", "143747.158000", "143747.161000", "143747.163000", "143747.166000", "143747.169000", "143752.152000", "143752.155000", "143752.158000", "143752.161000", "143752.163000", "143752.166000", "143752.169000", "143757.152000", "143757.155000", "143757.158000", "143757.161000", "143757.164000", "143757.167000", "143757.169000", "143802.152000", "143802.155000", "143802.158000", "143802.161000", "143802.164000", "143802.167000", "143802.169000", "143807.152000", "143807.155000", "143807.158000", "143807.161000", "143807.164000", "143807.166000", "143807.169000", "143812.152000", "143812.155000", "143812.158000", "143812.161000", "143812.163000", "143812.166000", "143812.169000", "143817.152000", "143817.155000", "143817.158000", "143817.161000", "143817.164000", "143817.166000", "143817.169000", "143822.152000", "143822.155000", "143822.158000", "143822.161000", "143822.163000", "143822.166000", "143822.169000", "143827.152000", "143827.155000", "143827.158000", "143827.161000", "143827.164000", "143827.166000", "143827.169000", "143832.152000", "143832.155000", "143832.158000", "143832.161000", "143832.163000", "143832.166000", "143832.169000", "143832.172000", "143837.152000", "143837.155000", "143837.158000", "143837.161000", "143837.163000", "143837.166000", "143837.169000", "143842.152000", "143842.155000", "143842.158000", "143842.160000", "143842.163000", "143842.166000", "143842.169000", "143847.152000", "143847.155000", "143847.158000", "143847.161000", "143847.164000", "143847.167000", "143847.169000", "143852.152000", "143852.155000", "143852.158000", "143852.161000", "143852.164000", "143852.166000", "143852.169000", "143857.152000", "143857.155000", "143857.158000", "143857.161000", "143857.164000", "143857.167000", "143857.170000", "143902.152000", "143902.155000", "143902.158000", "143902.161000", "143902.164000", "143902.166000", "143902.169000", "143907.152000", "143907.155000", "143907.264000", "143907.267000", "143907.270000", "143907.273000", "143907.276000", "143912.152000", "143912.155000", "143912.158000", "143912.161000", "143912.164000", "143912.166000", "143912.169000", "143917.152000", "143917.155000", "143917.158000", "143917.161000", "143917.164000", "143917.167000", "143917.169000", "143922.152000", "143922.155000", "143922.158000", "143922.161000", "143922.163000", "143922.166000", "143922.169000", "143927.152000", "143927.155000", "143927.158000", "143927.161000", "143927.164000", "143927.166000", "143927.169000", "143932.152000", "143932.155000", "143932.158000", "143932.161000", "143932.163000", "143937.152000", "143937.155000", "143937.158000", "143937.175000", "143937.178000", "143942.152000", "143942.155000", "143942.158000", "143942.161000", "143942.163000", "143947.152000", "143947.155000", "143947.158000", "143947.161000", "143947.164000", "143952.152000", "143952.155000", "143952.158000", "143952.161000", "143952.164000", "143957.152000", "143957.155000", "143957.158000", "143957.161000", "143957.164000", "144002.152000", "144002.155000", "144002.158000", "144002.161000", "144002.164000", "144007.152000", "144007.155000", "144007.158000", "144007.161000", "144007.164000", "144012.152000", "144012.155000", "144012.158000", "144012.161000", "144012.164000", "144017.152000", "144017.155000", "144017.158000", "144017.161000", "144017.164000", "144022.152000", "144022.155000", "144022.158000", "144022.161000", "144022.164000", "144027.152000", "144027.155000", "144027.158000", "144027.161000", "144027.164000", "144032.152000", "144032.155000", "144032.158000", "144032.161000", "144032.164000", "144037.152000", "144037.155000", "144037.158000", "144037.161000", "144037.164000", "144042.152000", "144042.155000", "144042.158000", "144042.161000", "144042.164000", "144047.152000", "144047.155000", "144047.158000", "144047.161000", "144047.164000", "144052.152000", "144052.155000", "144052.158000", "144052.161000", "144052.164000", "144057.152000", "144057.155000", "144057.158000", "144057.161000", "144057.164000", "144102.152000", "144102.155000", "144102.158000", "144102.161000", "144102.164000", "144106.530000", "144106.536000", "144106.541000", "144106.545000", "144106.547000"],
      "InstanceCreationTime": ["143732.183000", "143732.186000", "143737.152000", "143737.155000", "143737.158000", "143737.161000", "143737.164000", "143737.166000", "143737.177000", "143742.152000", "143742.155000", "143742.158000", "143742.161000", "143742.170000", "143742.172000", "143742.175000", "143747.152000", "143747.155000", "143747.158000", "143747.161000", "143747.163000", "143747.166000", "143747.169000", "143752.152000", "143752.155000", "143752.158000", "143752.161000", "143752.163000", "143752.166000", "143752.169000", "143757.152000", "143757.155000", "143757.158000", "143757.161000", "143757.164000", "143757.167000", "143757.169000", "143802.152000", "143802.155000", "143802.158000", "143802.161000", "143802.164000", "143802.167000", "143802.169000", "143807.152000", "143807.155000", "143807.158000", "143807.161000", "143807.164000", "143807.166000", "143807.169000", "143812.152000", "143812.155000", "143812.158000", "143812.161000", "143812.163000", "143812.166000", "143812.169000", "143817.152000", "143817.155000", "143817.158000", "143817.161000", "143817.164000", "143817.166000", "143817.169000", "143822.152000", "143822.155000", "143822.158000", "143822.161000", "143822.163000", "143822.166000", "143822.169000", "143827.152000", "143827.155000", "143827.158000", "143827.161000", "143827.164000", "143827.166000", "143827.169000", "143832.152000", "143832.155000", "143832.158000", "143832.161000", "143832.163000", "143832.166000", "143832.169000", "143832.172000", "143837.152000", "143837.155000", "143837.158000", "143837.161000", "143837.163000", "143837.166000", "143837.169000", "143842.152000", "143842.155000", "143842.158000", "143842.160000", "143842.163000", "143842.166000", "143842.169000", "143847.152000", "143847.155000", "143847.158000", "143847.161000", "143847.164000", "143847.167000", "143847.169000", "143852.152000", "143852.155000", "143852.158000", "143852.161000", "143852.164000", "143852.166000", "143852.169000", "143857.152000", "143857.155000", "143857.158000", "143857.161000", "143857.164000", "143857.167000", "143857.170000", "143902.152000", "143902.155000", "143902.158000", "143902.161000", "143902.164000", "143902.166000", "143902.169000", "143907.152000", "143907.155000", "143907.264000", "143907.267000", "143907.270000", "143907.273000", "143907.276000", "143912.152000", "143912.155000", "143912.158000", "143912.161000", "143912.164000", "143912.166000", "143912.169000", "143917.152000", "143917.155000", "143917.158000", "143917.161000", "143917.164000", "143917.167000", "143917.169000", "143922.152000", "143922.155000", "143922.158000", "143922.161000", "143922.163000", "143922.166000", "143922.169000", "143927.152000", "143927.155000", "143927.158000", "143927.161000", "143927.164000", "143927.166000", "143927.169000", "143932.152000", "143932.155000", "143932.158000", "143932.161000", "143932.163000", "143937.152000", "143937.155000", "143937.158000", "143937.175000", "143937.178000", "143942.152000", "143942.155000", "143942.158000", "143942.161000", "143942.163000", "143947.152000", "143947.155000", "143947.158000", "143947.161000", "143947.164000", "143952.152000", "143952.155000", "143952.158000", "143952.161000", "143952.164000", "143957.152000", "143957.155000", "143957.158000", "143957.161000", "143957.164000", "144002.152000", "144002.155000", "144002.158000", "144002.161000", "144002.164000", "144007.152000", "144007.155000", "144007.158000", "144007.161000", "144007.164000", "144012.152000", "144012.155000", "144012.158000", "144012.161000", "144012.164000", "144017.152000", "144017.155000", "144017.158000", "144017.161000", "144017.164000", "144022.152000", "144022.155000", "144022.158000", "144022.161000", "144022.164000", "144027.152000", "144027.155000", "144027.158000", "144027.161000", "144027.164000", "144032.152000", "144032.155000", "144032.158000", "144032.161000", "144032.164000", "144037.152000", "144037.155000", "144037.158000", "144037.161000", "144037.164000", "144042.152000", "144042.155000", "144042.158000", "144042.161000", "144042.164000", "144047.152000", "144047.155000", "144047.158000", "144047.161000", "144047.164000", "144052.152000", "144052.155000", "144052.158000", "144052.161000", "144052.164000", "144057.152000", "144057.155000", "144057.158000", "144057.161000", "144057.164000", "144102.152000", "144102.155000", "144102.158000", "144102.161000", "144102.164000", "144106.530000", "144106.536000", "144106.541000", "144106.545000", "144106.547000"],
      "InstanceNumber": [1, 2, 3, 4, 5, 6, 7, 8, 9, 10, 11, 12, 13, 14, 15, 16, 17, 18, 19, 20, 21, 22, 23, 24, 25, 26, 27, 28, 29, 30, 31, 32, 33, 34, 35, 36, 37, 38, 39, 40, 41, 42, 43, 44, 45, 46, 47, 48, 49, 50, 51, 52, 53, 54, 55, 56, 57, 58, 59, 60, 61, 62, 63, 64, 65, 66, 67, 68, 69, 70, 71, 72, 73, 74, 75, 76, 77, 78, 79, 80, 81, 82, 83, 84, 85, 86, 87, 88, 89, 90, 91, 92, 93, 94, 95, 96, 97, 98, 99, 100, 101, 102, 103, 104, 105, 106, 107, 108, 109, 110, 111, 112, 113, 114, 115, 116, 117, 118, 119, 120, 121, 122, 123, 124, 125, 126, 127, 128, 129, 130, 131, 132, 133, 134, 135, 136, 137, 138, 139, 140, 141, 142, 143, 144, 145, 146, 147, 148, 149, 150, 151, 152, 153, 154, 155, 156, 157, 158, 159, 160, 161, 162, 163, 164, 165, 166, 167, 168, 169, 170, 171, 172, 173, 174, 175, 176, 177, 178, 179, 180, 181, 182, 183, 184, 185, 186, 187, 188, 189, 190, 191, 192, 193, 194, 195, 196, 197, 198, 199, 200, 201, 202, 203, 204, 205, 206, 207, 208, 209, 210, 211, 212, 213, 214, 215, 216, 217, 218, 219, 220, 221, 222, 223, 224, 225, 226, 227, 228, 229, 230, 231, 232, 233, 234, 235, 236, 237, 238, 239, 240, 241, 242, 243, 244, 245, 246, 247, 248, 249, 250, 251, 252, 253, 254, 255, 256, 257, 258, 259, 260, 261, 262, 263, 264],
      "LargestImagePixelValue": [30897, 29927, 29113, 28926, 28789, 28733, 28543, 28630, 28884, 29354, 29226, 29120, 28839, 28790, 28764, 28746, 29133, 28764, 28654, 28793, 28837, 28742, 29037, 29000, 28970, 29171, 28977, 28825, 28558, 28243, 28249, 28857, 28194, 28615, 28485, 29056, 28664, 28974, 28766, 28894, 28866, 29078, 28894, 28587, 28341, 28913, 28662, 29061, 28673, 28609, 28712, 28737, 28711, 28608, 28861, 28895, 28777, 29078, 28423, 28706, 28965, 28628, 29022, 28442, 28803, 28821, 28587, 28964, 28739, 28840, 28878, 28876, 29082, 28955, 28750, 28876, 28920, 28742, 28691, 28446, 28611, 29002, 28274, 28494, 28645, 28781, 28999, 28887, 29146, 29086, 28830, 28624, 28682, 28610, 28690, 28633, 28719, 28365, 28660, 28396, 29028, 28575, 28970, 28849, 28423, 28812, 29015, 28699, 28526, 28734, 28613, 28918, 28717, 28539, 28659, 29012, 28926, 28649, 28353, 28511, 28357, 28756, 28593, 28294, 28603, 28796, 28118, 28547, 28840, 28540, 28439, 28981, 28695, 28481, 28547, 28659, 28299, 28450, 28737, 28812, 28946, 28863, 28656, 28793, 28872, 28331, 28508, 28983, 28781, 28951, 28730, 28338, 28853, 29803, 28518, 28796, 28972, 29041, 28912, 28869, 28754, 29171, 29080, 28711, 28773, 28557, 28881, 28705, 29089, 28683, 28729, 28924, 29200, 28828, 28580, 28692, 28767, 28840, 28636, 28678, 28969, 28889, 28841, 28894, 28568, 29070, 28603, 28671, 28645, 28807, 28878, 28752, 28771, 28220, 28749, 29198, 28759, 28653, 28857, 28691, 28426, 28587, 29385, 28892, 28408, 28819, 29271, 28536, 28954, 28491, 28778, 28806, 28776, 28907, 28814, 28832, 28884, 28752, 28431, 28934, 29087, 28310, 28571, 29042, 28718, 28553, 28503, 29091, 28819, 28865, 28814, 28885, 28830, 28963, 28469, 28732, 28752, 28767, 28653, 28425, 28515, 28828, 28551, 28252, 28576, 28605, 29070, 28677, 29033, 28638, 28686, 28412, 28995, 28530, 28740, 28670, 28915, 28881, 28088, 28399, 28252, 28840, 28734, 28615],
      "WindowCenter": [9495.0, 9450.0, 9401.0, 9382.0, 9388.0, 9388.0, 9373.0, 9372.0, 9391.0, 9398.0, 9385.0, 9392.0, 9395.0, 9393.0, 9386.0, 9386.0, 9400.0, 9378.0, 9378.0, 9385.0, 9393.0, 9386.0, 9393.0, 9401.0, 9394.0, 9400.0, 9401.0, 9394.0, 9380.0, 9375.0, 9389.0, 9394.0, 9388.0, 9398.0, 9390.0, 9394.0, 9394.0, 9402.0, 9387.0, 9393.0, 9394.0, 9399.0, 9386.0, 9388.0, 9402.0, 9394.0, 9393.0, 9401.0, 9393.0, 9388.0, 9402.0, 9401.0, 9395.0, 9396.0, 9411.0, 9402.0, 9395.0, 9401.0, 9396.0, 9386.0, 9390.0, 9387.0, 9392.0, 9386.0, 9386.0, 9394.0, 9386.0, 9399.0, 9394.0, 9401.0, 9395.0, 9387.0, 9385.0, 9369.0, 9352.0, 9351.0, 9358.0, 9356.0, 9357.0, 9360.0, 9377.0, 9388.0, 9366.0, 9379.0, 9392.0, 9379.0, 9391.0, 9392.0, 9390.0, 9383.0, 9384.0, 9384.0, 9381.0, 9368.0, 9382.0, 9368.0, 9373.0, 9376.0, 9384.0, 9378.0, 9397.0, 9381.0, 9376.0, 9367.0, 9366.0, 9357.0, 9372.0, 9383.0, 9386.0, 9393.0, 9395.0, 9394.0, 9385.0, 9377.0, 9382.0, 9372.0, 9365.0, 9366.0, 9358.0, 9358.0, 9374.0, 9372.0, 9365.0, 9360.0, 9372.0, 9364.0, 9359.0, 9360.0, 9364.0, 9365.0, 9364.0, 9369.0, 9364.0, 9373.0, 9373.0, 9375.0, 9387.0, 9385.0, 9390.0, 9382.0, 9374.0, 9380.0, 9371.0, 9366.0, 9379.0, 9375.0, 9361.0, 9372.0, 9366.0, 9355.0, 9348.0, 9350.0, 9365.0, 9376.0, 9367.0, 9381.0, 9382.0, 9372.0, 9373.0, 9375.0, 9374.0, 9380.0, 9388.0, 9381.0, 9375.0, 9376.0, 9384.0, 9376.0, 9382.0, 9376.0, 9383.0, 9375.0, 9382.0, 9376.0, 9377.0, 9369.0, 9367.0, 9374.0, 9360.0, 9367.0, 9374.0, 9364.0, 9359.0, 9372.0, 9378.0, 9397.0, 9395.0, 9402.0, 9400.0, 9385.0, 9392.0, 9408.0, 9403.0, 9399.0, 9418.0, 9418.0, 9395.0, 9387.0, 9376.0, 9360.0, 9352.0, 9359.0, 9378.0, 9365.0, 9353.0, 9365.0, 9379.0, 9359.0, 9366.0, 9367.0, 9375.0, 9373.0, 9373.0, 9381.0, 9368.0, 9374.0, 9382.0, 9374.0, 9368.0, 9381.0, 9381.0, 9363.0, 9377.0, 9389.0, 9383.0, 9368.0, 9367.0, 9379.0, 9359.0, 9357.0, 9364.0, 9365.0, 9365.0, 9377.0, 9368.0, 9374.0, 9374.0, 9382.0, 9389.0, 9377.0, 9385.0, 9401.0, 9379.0, 9372.0, 9386.0, 9378.0, 9383.0, 9391.0, 9391.0, 9379.0, 9391.0, 9370.0, 9372.0, 9351.0, 9356.0, 9356.0, 9373.0, 9383.0, 9388.0, 9386.0, 9371.0, 9384.0, 9367.0, 9353.0],
      "WindowWidth": [20217.0, 20101.0, 19989.0, 19941.0, 19946.0, 19946.0, 19913.0, 19910.0, 19945.0, 19955.0, 19932.0, 19946.0, 19956.0, 19949.0, 19936.0, 19935.0, 19963.0, 19920.0, 19917.0, 19935.0, 19950.0, 19935.0, 19949.0, 19971.0, 19955.0, 19965.0, 19972.0, 19956.0, 19928.0, 19923.0, 19948.0, 19953.0, 19945.0, 19969.0, 19949.0, 19955.0, 19957.0, 19970.0, 19940.0, 19951.0, 19956.0, 19964.0, 19939.0, 19944.0, 19974.0, 19956.0, 19955.0, 19971.0, 19953.0, 19944.0, 19974.0, 19970.0, 19959.0, 19962.0, 19993.0, 19971.0, 19957.0, 19968.0, 19962.0, 19938.0, 19943.0, 19943.0, 19947.0, 19935.0, 19937.0, 19954.0, 19938.0, 19961.0, 19954.0, 19968.0, 19958.0, 19941.0, 19936.0, 19902.0, 19865.0, 19860.0, 19874.0, 19871.0, 19873.0, 19882.0, 19921.0, 19936.0, 19901.0, 19927.0, 19952.0, 19924.0, 19944.0, 19952.0, 19945.0, 19930.0, 19932.0, 19934.0, 19923.0, 19901.0, 19926.0, 19898.0, 19906.0, 19916.0, 19934.0, 19921.0, 19954.0, 19931.0, 19915.0, 19896.0, 19895.0, 19874.0, 19902.0, 19932.0, 19939.0, 19949.0, 19960.0, 19955.0, 19935.0, 19921.0, 19927.0, 19902.0, 19890.0, 19894.0, 19876.0, 19875.0, 19910.0, 19902.0, 19891.0, 19885.0, 19906.0, 19888.0, 19881.0, 19884.0, 19888.0, 19890.0, 19889.0, 19894.0, 19887.0, 19910.0, 19907.0, 19913.0, 19943.0, 19939.0, 19943.0, 19925.0, 19910.0, 19920.0, 19900.0, 19892.0, 19918.0, 19914.0, 19885.0, 19901.0, 19895.0, 19868.0, 19855.0, 19860.0, 19889.0, 19906.0, 19895.0, 19926.0, 19927.0, 19905.0, 19905.0, 19916.0, 19909.0, 19918.0, 19935.0, 19922.0, 19910.0, 19914.0, 19930.0, 19914.0, 19924.0, 19913.0, 19930.0, 19912.0, 19923.0, 19916.0, 19919.0, 19899.0, 19895.0, 19911.0, 19883.0, 19895.0, 19910.0, 19890.0, 19880.0, 19904.0, 19925.0, 19958.0, 19958.0, 19975.0, 19969.0, 19939.0, 19951.0, 19986.0, 19977.0, 19973.0, 20009.0, 20006.0, 19959.0, 19941.0, 19917.0, 19881.0, 19864.0, 19878.0, 19915.0, 19888.0, 19868.0, 19890.0, 19916.0, 19881.0, 19892.0, 19897.0, 19914.0, 19907.0, 19904.0, 19925.0, 19899.0, 19909.0, 19927.0, 19911.0, 19896.0, 19922.0, 19921.0, 19890.0, 19916.0, 19938.0, 19927.0, 19895.0, 19891.0, 19915.0, 19876.0, 19872.0, 19888.0, 19892.0, 19889.0, 19910.0, 19903.0, 19907.0, 19910.0, 19928.0, 19943.0, 19921.0, 19938.0, 19973.0, 19928.0, 19914.0, 19941.0, 19923.0, 19928.0, 19948.0, 19944.0, 19922.0, 19946.0, 19904.0, 19900.0, 19860.0, 19871.0, 19871.0, 19904.0, 19929.0, 19945.0, 19937.0, 19908.0, 19931.0, 19894.0, 19866.0]
    },
    "slices": {}
  }
}