{
  "AcquisitionMatrixPE": 104,
  "AcquisitionNumber": 1,
  "AcquisitionTime": "10:47:20.520000",
  "BandwidthPerPixelPhaseEncode": 16.578,
  "BaseResolution": 104,
  "BodyPartExamined": "BRAIN",
  "ConsistencyInfo": "N4_VE11C_LATEST_20160120",
  "ConversionSoftware": "dcm2niix",
  "ConversionSoftwareVersion": "v1.0.20190410  GCC6.3.0",
  "DerivedVendorReportedEchoSpacing": 0.000580009,
  "DeviceSerialNumber": "166018",
  "DwellTime": 2.1e-06,
  "EchoTime": 0.037,
  "EchoTrainLength": 104,
  "EffectiveEchoSpacing": 0.000580009,
  "FlipAngle": 68,
  "ImageComments": "Unaliased_MB6_PE3_LB",
  "ImageOrientationPatientDICOM": [0.995442, 0.0831316, 0.0467403, -0.0820152, 0.996309, -0.0253203],
  "ImageType": [
    "ORIGINAL",
    "PRIMARY",
    "M",
    "MB",
    "ND",
    "MOSAIC"
],
  "ImagingFrequency": 123.191,
  "InPlanePhaseEncodingDirectionDICOM": "COL",
  "InstitutionAddress": "Washington_Place_6_NYC_NYC_US_10003",
  "InstitutionName": "NYU_Center_for_Brain_Imaging",
  "InstitutionalDepartmentName": "Department",
  "MRAcquisitionType": "2D",
  "MagneticFieldStrength": 3,
  "Manufacturer": "Siemens",
  "ManufacturersModelName": "Prisma",
  "Modality": "MR",
  "MultibandAccelerationFactor": 6,
  "PartialFourier": 1,
  "PatientPosition": "HFS",
  "PercentPhaseFOV": 100,
  "PhaseEncodingDirection": "j",
  "PhaseEncodingSteps": 104,
  "PhaseResolution": 1,
  "PixelBandwidth": 2290,
  "ProcedureStepDescription": "Investigators_Winawer",
  "ProtocolName": "task-sfprescaled_cmrr_mbepi_s6_2mm_66sl_PA_TR1.0",
  "PulseSequenceDetails": "%CustomerSeq%_cmrr_mbep2d_bold",
  "ReceiveCoilActiveElements": "HC1-7",
  "ReceiveCoilName": "HeadNeck_64",
  "ReconMatrixPE": 104,
  "RepetitionTime": 1,
  "SAR": 0.0685127,
  "ScanOptions": "FS",
  "ScanningSequence": "EP",
  "SequenceName": "epfid2d1_104",
  "SequenceVariant": "SK_SS",
  "SeriesDescription": "task-sfprescaled_cmrr_mbepi_s6_2mm_66sl_PA_TR1.0",
  "SeriesNumber": 22,
  "ShimSetting": [277, -12593, -8545, 325, -6, -111, -35, 26],
  "SliceThickness": 2,
  "SliceTiming": [0, 0.535, 0.09, 0.6225, 0.1775, 0.7125, 0.2675, 0.8025, 0.355, 0.89, 0.445, 0, 0.535, 0.09, 0.6225, 0.1775, 0.7125, 0.2675, 0.8025, 0.355, 0.89, 0.445, 0, 0.535, 0.09, 0.6225, 0.1775, 0.7125, 0.2675, 0.8025, 0.355, 0.89, 0.445, 0, 0.535, 0.09, 0.6225, 0.1775, 0.7125, 0.2675, 0.8025, 0.355, 0.89, 0.445, 0, 0.535, 0.09, 0.6225, 0.1775, 0.7125, 0.2675, 0.8025, 0.355, 0.89, 0.445, 0, 0.535, 0.09, 0.6225, 0.1775, 0.7125, 0.2675, 0.8025, 0.355, 0.89, 0.445],
  "SoftwareVersions": "syngo_MR_E11",
  "SpacingBetweenSlices": 2,
  "StationName": "AWP166018",
  "TaskName": "sfprescaled",
  "TotalReadoutTime": 0.0597409,
  "TxRefAmp": 203.092,
  "WipMemBlock": "7de05b99-da33-4cf8-aed5-c1e525a8e42a||Sequence: R016 ve11c/master r/8780670; Nov 27 2017 15:05:12 by eja",
  "dcmmeta_affine": [
    [-1.990883708000183, -0.16403035819530487, 0.09734547138214111, 113.74717712402344],
    [-0.16626325249671936, 1.9926187992095947, -0.04274289309978485, -73.30086517333984],
    [0.09348063915967941, 0.05064055323600769, 1.997172236442566, -41.04076385498047],
    [0.0, 0.0, 0.0, 1.0]
],
  "dcmmeta_reorient_transform": [
    [0.0, -1.0, 0.0, 103.0],
    [1.0, 0.0, 0.0, 0.0],
    [0.0, 0.0, 1.0, 0.0],
    [0.0, 0.0, 0.0, 1.0]
],
  "dcmmeta_shape": [104, 104, 66, 264],
  "dcmmeta_slice_dim": 2,
  "dcmmeta_version": 0.6,
  "global": {
    "const": {
      "AccessionNumber": "jv3y3i0c",
  "NumberOfVolumes": 264,
      "AcquisitionMatrix": [104, 0, 0, 104],
      "AngioFlag": "N",
      "BitsAllocated": 16,
      "BitsStored": 16,
      "BodyPartExamined": "BRAIN",
      "Columns": 936,
      "EchoNumbers": 1,
      "EchoTime": 37.0,
      "EchoTrainLength": 104,
      "FlipAngle": 68.0,
      "HighBit": 15,
      "ImageOrientationPatient": [0.99544184899904, 0.08313162831178, 0.04674032130395, -0.0820151813389, 0.99630938650778, -0.0253202761922],
      "ImagePositionPatient": [-856.82303483909, -1030.0337956389, -53.646265343491],
      "ImageType": [
        "ORIGINAL",
        "PRIMARY",
        "M",
        "MB",
        "ND",
        "MOSAIC"
],
      "ImagedNucleus": "1H",
      "ImagingFrequency": 123.191083,
      "InPlanePhaseEncodingDirection": "COL",
      "MRAcquisitionType": "2D",
      "MagneticFieldStrength": 3.0,
      "Manufacturer": "SIEMENS",
      "ManufacturerModelName": "Prisma",
      "Modality": "MR",
      "NumberOfAverages": 1.0,
      "NumberOfPhaseEncodingSteps": 104,
      "PercentPhaseFieldOfView": 100.0,
      "PercentSampling": 100.0,
      "PerformedProcedureStepStartTime": "100021.887000",
      "PhotometricInterpretation": "MONOCHROME2",
      "PixelBandwidth": 2290.0,
      "PixelRepresentation": 0,
      "PixelSpacing": [2.0, 2.0],
      "ProtocolName": "task-sfprescaled_cmrr_mbepi_s6_2mm_66sl_PA_TR1.0",
      "RepetitionTime": 1000.0,
      "Rows": 936,
      "SAR": 0.06851266208846,
      "SamplesPerPixel": 1,
      "ScanOptions": "FS",
      "ScanningSequence": "EP",
      "SequenceName": "epfid2d1_104",
      "SequenceVariant": [
        "SK",
        "SS"
],
      "SeriesDescription": "task-sfprescaled_cmrr_mbepi_s6_2mm_66sl_PA_TR1.0",
      "SeriesNumber": 22,
      "SeriesTime": "104816.161000",
      "SliceLocation": -33.879805977721,
      "SliceThickness": 2.0,
      "SmallestImagePixelValue": 0,
      "SoftwareVersions": "syngo MR E11",
      "SpacingBetweenSlices": 2.0000000256817,
      "SpecificCharacterSet": "ISO_IR 100",
      "StudyID": "1",
      "StudyTime": "100021.836000",
      "TransmitCoilName": "Body",
      "VariableFlipAngleFlag": "N",
      "WindowCenterWidthExplanation": "Algo1",
      "dBdt": 0.0},
    "slices": {}
  },
  "time": {
    "samples": {
      "AcquisitionNumber": [1, 2, 3, 4, 5, 6, 7, 8, 9, 10, 11, 12, 13, 14, 15, 16, 17, 18, 19, 20, 21, 22, 23, 24, 25, 26, 27, 28, 29, 30, 31, 32, 33, 34, 35, 36, 37, 38, 39, 40, 41, 42, 43, 44, 45, 46, 47, 48, 49, 50, 51, 52, 53, 54, 55, 56, 57, 58, 59, 60, 61, 62, 63, 64, 65, 66, 67, 68, 69, 70, 71, 72, 73, 74, 75, 76, 77, 78, 79, 80, 81, 82, 83, 84, 85, 86, 87, 88, 89, 90, 91, 92, 93, 94, 95, 96, 97, 98, 99, 100, 101, 102, 103, 104, 105, 106, 107, 108, 109, 110, 111, 112, 113, 114, 115, 116, 117, 118, 119, 120, 121, 122, 123, 124, 125, 126, 127, 128, 129, 130, 131, 132, 133, 134, 135, 136, 137, 138, 139, 140, 141, 142, 143, 144, 145, 146, 147, 148, 149, 150, 151, 152, 153, 154, 155, 156, 157, 158, 159, 160, 161, 162, 163, 164, 165, 166, 167, 168, 169, 170, 171, 172, 173, 174, 175, 176, 177, 178, 179, 180, 181, 182, 183, 184, 185, 186, 187, 188, 189, 190, 191, 192, 193, 194, 195, 196, 197, 198, 199, 200, 201, 202, 203, 204, 205, 206, 207, 208, 209, 210, 211, 212, 213, 214, 215, 216, 217, 218, 219, 220, 221, 222, 223, 224, 225, 226, 227, 228, 229, 230, 231, 232, 233, 234, 235, 236, 237, 238, 239, 240, 241, 242, 243, 244, 245, 246, 247, 248, 249, 250, 251, 252, 253, 254, 255, 256, 257, 258, 259, 260, 261, 262, 263, 264],
      "AcquisitionTime": ["104720.520000", "104721.520000", "104722.520000", "104723.520000", "104724.520000", "104725.520000", "104726.520000", "104727.520000", "104728.520000", "104729.520000", "104730.520000", "104731.520000", "104732.520000", "104733.520000", "104734.520000", "104735.520000", "104736.520000", "104737.520000", "104738.520000", "104739.520000", "104740.520000", "104741.520000", "104742.520000", "104743.520000", "104744.520000", "104745.520000", "104746.520000", "104747.520000", "104748.520000", "104749.520000", "104750.520000", "104751.520000", "104752.520000", "104753.520000", "104754.520000", "104755.520000", "104756.520000", "104757.520000", "104758.520000", "104759.520000", "104800.520000", "104801.520000", "104802.520000", "104803.520000", "104804.520000", "104805.520000", "104806.520000", "104807.520000", "104808.520000", "104809.520000", "104810.520000", "104811.520000", "104812.520000", "104813.520000", "104814.520000", "104815.520000", "104816.520000", "104817.520000", "104818.520000", "104819.520000", "104820.520000", "104821.520000", "104822.520000", "104823.520000", "104824.520000", "104825.520000", "104826.520000", "104827.520000", "104828.520000", "104829.520000", "104830.520000", "104831.520000", "104832.520000", "104833.520000", "104834.520000", "104835.520000", "104836.520000", "104837.520000", "104838.520000", "104839.520000", "104840.520000", "104841.520000", "104842.520000", "104843.520000", "104844.520000", "104845.520000", "104846.520000", "104847.520000", "104848.520000", "104849.520000", "104850.520000", "104851.520000", "104852.520000", "104853.520000", "104854.520000", "104855.520000", "104856.520000", "104857.520000", "104858.520000", "104859.520000", "104900.520000", "104901.520000", "104902.520000", "104903.520000", "104904.520000", "104905.520000", "104906.520000", "104907.520000", "104908.520000", "104909.520000", "104910.520000", "104911.520000", "104912.520000", "104913.520000", "104914.520000", "104915.520000", "104916.520000", "104917.520000", "104918.520000", "104919.520000", "104920.520000", "104921.520000", "104922.520000", "104923.520000", "104924.520000", "104925.520000", "104926.520000", "104927.520000", "104928.520000", "104929.520000", "104930.520000", "104931.520000", "104932.520000", "104933.520000", "104934.520000", "104935.520000", "104936.520000", "104937.520000", "104938.520000", "104939.520000", "104940.520000", "104941.520000", "104942.520000", "104943.520000", "104944.520000", "104945.520000", "104946.520000", "104947.520000", "104948.520000", "104949.520000", "104950.520000", "104951.520000", "104952.520000", "104953.520000", "104954.520000", "104955.520000", "104956.520000", "104957.520000", "104958.520000", "104959.520000", "105000.520000", "105001.520000", "105002.520000", "105003.520000", "105004.520000", "105005.520000", "105006.520000", "105007.520000", "105008.520000", "105009.520000", "105010.520000", "105011.520000", "105012.520000", "105013.520000", "105014.520000", "105015.520000", "105016.520000", "105017.520000", "105018.520000", "105019.520000", "105020.520000", "105021.520000", "105022.520000", "105023.520000", "105024.520000", "105025.520000", "105026.520000", "105027.520000", "105028.520000", "105029.520000", "105030.520000", "105031.520000", "105032.520000", "105033.520000", "105034.520000", "105035.520000", "105036.520000", "105037.520000", "105038.520000", "105039.520000", "105040.520000", "105041.520000", "105042.520000", "105043.520000", "105044.520000", "105045.520000", "105046.520000", "105047.520000", "105048.520000", "105049.520000", "105050.520000", "105051.520000", "105052.520000", "105053.520000", "105054.520000", "105055.520000", "105056.520000", "105057.520000", "105058.520000", "105059.520000", "105100.520000", "105101.520000", "105102.520000", "105103.520000", "105104.520000", "105105.520000", "105106.520000", "105107.520000", "105108.520000", "105109.520000", "105110.520000", "105111.520000", "105112.520000", "105113.520000", "105114.520000", "105115.520000", "105116.520000", "105117.520000", "105118.520000", "105119.520000", "105120.520000", "105121.520000", "105122.520000", "105123.520000", "105124.520000", "105125.520000", "105126.520000", "105127.520000", "105128.520000", "105129.520000", "105130.520000", "105131.520000", "105132.520000", "105133.520000", "105134.520000", "105135.520000", "105136.520000", "105137.520000", "105138.520000", "105139.520000", "105140.520000", "105141.520000", "105142.520000", "105143.520000"],
      "ContentTime": ["104816.163000", "104816.167000", "104816.169000", "104816.172000", "104816.175000", "104816.187000", "104816.190000", "104821.161000", "104821.164000", "104821.167000", "104821.170000", "104821.173000", "104821.176000", "104821.178000", "104826.162000", "104826.165000", "104826.175000", "104826.178000", "104826.181000", "104826.184000", "104826.187000", "104831.162000", "104831.165000", "104831.168000", "104831.171000", "104831.174000", "104831.176000", "104831.184000", "104836.162000", "104836.165000", "104836.168000", "104836.171000", "104836.174000", "104836.176000", "104836.179000", "104841.162000", "104841.218000", "104841.221000", "104841.224000", "104841.227000", "104841.230000", "104841.233000", "104846.162000", "104846.165000", "104846.168000", "104846.171000", "104846.173000", "104846.176000", "104846.179000", "104851.162000", "104851.165000", "104851.168000", "104851.171000", "104851.174000", "104851.176000", "104851.179000", "104856.161000", "104856.164000", "104856.167000", "104856.170000", "104856.173000", "104856.175000", "104856.178000", "104901.162000", "104901.165000", "104901.168000", "104901.171000", "104901.174000", "104901.176000", "104901.179000", "104901.182000", "104906.162000", "104906.165000", "104906.168000", "104906.171000", "104906.174000", "104906.176000", "104906.179000", "104911.162000", "104911.165000", "104911.168000", "104911.171000", "104911.174000", "104911.177000", "104911.179000", "104916.162000", "104916.165000", "104916.168000", "104916.171000", "104916.173000", "104916.176000", "104916.179000", "104921.162000", "104921.165000", "104921.168000", "104921.171000", "104921.173000", "104921.176000", "104921.179000", "104926.162000", "104926.165000", "104926.168000", "104926.171000", "104926.174000", "104926.176000", "104926.179000", "104931.161000", "104931.164000", "104931.167000", "104931.170000", "104931.173000", "104931.175000", "104931.178000", "104936.162000", "104936.165000", "104936.168000", "104936.171000", "104936.174000", "104936.176000", "104936.179000", "104941.162000", "104941.165000", "104941.168000", "104941.171000", "104941.174000", "104941.176000", "104941.179000", "104946.162000", "104946.172000", "104946.174000", "104946.177000", "104946.180000", "104946.183000", "104946.186000", "104951.162000", "104951.165000", "104951.168000", "104951.171000", "104951.174000", "104951.176000", "104951.179000", "104956.162000", "104956.165000", "104956.168000", "104956.171000", "104956.174000", "104956.176000", "104956.179000", "105001.162000", "105001.165000", "105001.168000", "105001.171000", "105001.174000", "105001.177000", "105001.180000", "105006.161000", "105006.164000", "105006.167000", "105006.170000", "105006.173000", "105006.175000", "105006.178000", "105011.162000", "105011.165000", "105011.168000", "105011.171000", "105011.174000", "105011.176000", "105011.179000", "105016.162000", "105016.165000", "105016.168000", "105016.171000", "105016.174000", "105021.162000", "105021.165000", "105021.168000", "105021.171000", "105021.174000", "105026.162000", "105026.165000", "105026.168000", "105026.171000", "105026.174000", "105031.162000", "105031.165000", "105031.168000", "105031.171000", "105031.174000", "105036.162000", "105036.165000", "105036.168000", "105036.171000", "105036.174000", "105041.161000", "105041.164000", "105041.167000", "105041.177000", "105041.180000", "105046.162000", "105046.165000", "105046.168000", "105046.171000", "105046.174000", "105051.162000", "105051.238000", "105051.240000", "105051.243000", "105051.246000", "105056.162000", "105056.165000", "105056.168000", "105056.171000", "105056.173000", "105101.162000", "105101.165000", "105101.168000", "105101.171000", "105101.174000", "105106.162000", "105106.165000", "105106.168000", "105106.171000", "105106.174000", "105111.162000", "105111.165000", "105111.168000", "105111.171000", "105111.174000", "105116.161000", "105116.164000", "105116.167000", "105116.170000", "105116.173000", "105121.162000", "105121.190000", "105121.193000", "105121.196000", "105121.199000", "105126.162000", "105126.165000", "105126.168000", "105126.171000", "105126.174000", "105131.162000", "105131.165000", "105131.168000", "105131.171000", "105131.174000", "105136.162000", "105136.165000", "105136.168000", "105136.171000", "105136.173000", "105141.162000", "105141.165000", "105141.168000", "105141.171000", "105141.174000", "105145.538000", "105145.541000", "105145.544000", "105145.547000", "105145.550000"],
      "InstanceCreationTime": ["104816.163000", "104816.167000", "104816.169000", "104816.172000", "104816.175000", "104816.187000", "104816.190000", "104821.161000", "104821.164000", "104821.167000", "104821.170000", "104821.173000", "104821.176000", "104821.178000", "104826.162000", "104826.165000", "104826.175000", "104826.178000", "104826.181000", "104826.184000", "104826.187000", "104831.162000", "104831.165000", "104831.168000", "104831.171000", "104831.174000", "104831.176000", "104831.184000", "104836.162000", "104836.165000", "104836.168000", "104836.171000", "104836.174000", "104836.176000", "104836.179000", "104841.162000", "104841.218000", "104841.221000", "104841.224000", "104841.227000", "104841.230000", "104841.233000", "104846.162000", "104846.165000", "104846.168000", "104846.171000", "104846.173000", "104846.176000", "104846.179000", "104851.162000", "104851.165000", "104851.168000", "104851.171000", "104851.174000", "104851.176000", "104851.179000", "104856.161000", "104856.164000", "104856.167000", "104856.170000", "104856.173000", "104856.175000", "104856.178000", "104901.162000", "104901.165000", "104901.168000", "104901.171000", "104901.174000", "104901.176000", "104901.179000", "104901.182000", "104906.162000", "104906.165000", "104906.168000", "104906.171000", "104906.174000", "104906.176000", "104906.179000", "104911.162000", "104911.165000", "104911.168000", "104911.171000", "104911.174000", "104911.177000", "104911.179000", "104916.162000", "104916.165000", "104916.168000", "104916.171000", "104916.173000", "104916.176000", "104916.179000", "104921.162000", "104921.165000", "104921.168000", "104921.171000", "104921.173000", "104921.176000", "104921.179000", "104926.162000", "104926.165000", "104926.168000", "104926.171000", "104926.174000", "104926.176000", "104926.179000", "104931.161000", "104931.164000", "104931.167000", "104931.170000", "104931.173000", "104931.175000", "104931.178000", "104936.162000", "104936.165000", "104936.168000", "104936.171000", "104936.174000", "104936.176000", "104936.179000", "104941.162000", "104941.165000", "104941.168000", "104941.171000", "104941.174000", "104941.176000", "104941.179000", "104946.162000", "104946.172000", "104946.174000", "104946.177000", "104946.180000", "104946.183000", "104946.186000", "104951.162000", "104951.165000", "104951.168000", "104951.171000", "104951.174000", "104951.176000", "104951.179000", "104956.162000", "104956.165000", "104956.168000", "104956.171000", "104956.174000", "104956.176000", "104956.179000", "105001.162000", "105001.165000", "105001.168000", "105001.171000", "105001.174000", "105001.177000", "105001.180000", "105006.161000", "105006.164000", "105006.167000", "105006.170000", "105006.173000", "105006.175000", "105006.178000", "105011.162000", "105011.165000", "105011.168000", "105011.171000", "105011.174000", "105011.176000", "105011.179000", "105016.162000", "105016.165000", "105016.168000", "105016.171000", "105016.174000", "105021.162000", "105021.165000", "105021.168000", "105021.171000", "105021.174000", "105026.162000", "105026.165000", "105026.168000", "105026.171000", "105026.174000", "105031.162000", "105031.165000", "105031.168000", "105031.171000", "105031.174000", "105036.162000", "105036.165000", "105036.168000", "105036.171000", "105036.174000", "105041.161000", "105041.164000", "105041.167000", "105041.177000", "105041.180000", "105046.162000", "105046.165000", "105046.168000", "105046.171000", "105046.174000", "105051.162000", "105051.238000", "105051.240000", "105051.243000", "105051.246000", "105056.162000", "105056.165000", "105056.168000", "105056.171000", "105056.173000", "105101.162000", "105101.165000", "105101.168000", "105101.171000", "105101.174000", "105106.162000", "105106.165000", "105106.168000", "105106.171000", "105106.174000", "105111.162000", "105111.165000", "105111.168000", "105111.171000", "105111.174000", "105116.161000", "105116.164000", "105116.167000", "105116.170000", "105116.173000", "105121.162000", "105121.190000", "105121.193000", "105121.196000", "105121.199000", "105126.162000", "105126.165000", "105126.168000", "105126.171000", "105126.174000", "105131.162000", "105131.165000", "105131.168000", "105131.171000", "105131.174000", "105136.162000", "105136.165000", "105136.168000", "105136.171000", "105136.173000", "105141.162000", "105141.165000", "105141.168000", "105141.171000", "105141.174000", "105145.538000", "105145.541000", "105145.544000", "105145.547000", "105145.550000"],
      "InstanceNumber": [1, 2, 3, 4, 5, 6, 7, 8, 9, 10, 11, 12, 13, 14, 15, 16, 17, 18, 19, 20, 21, 22, 23, 24, 25, 26, 27, 28, 29, 30, 31, 32, 33, 34, 35, 36, 37, 38, 39, 40, 41, 42, 43, 44, 45, 46, 47, 48, 49, 50, 51, 52, 53, 54, 55, 56, 57, 58, 59, 60, 61, 62, 63, 64, 65, 66, 67, 68, 69, 70, 71, 72, 73, 74, 75, 76, 77, 78, 79, 80, 81, 82, 83, 84, 85, 86, 87, 88, 89, 90, 91, 92, 93, 94, 95, 96, 97, 98, 99, 100, 101, 102, 103, 104, 105, 106, 107, 108, 109, 110, 111, 112, 113, 114, 115, 116, 117, 118, 119, 120, 121, 122, 123, 124, 125, 126, 127, 128, 129, 130, 131, 132, 133, 134, 135, 136, 137, 138, 139, 140, 141, 142, 143, 144, 145, 146, 147, 148, 149, 150, 151, 152, 153, 154, 155, 156, 157, 158, 159, 160, 161, 162, 163, 164, 165, 166, 167, 168, 169, 170, 171, 172, 173, 174, 175, 176, 177, 178, 179, 180, 181, 182, 183, 184, 185, 186, 187, 188, 189, 190, 191, 192, 193, 194, 195, 196, 197, 198, 199, 200, 201, 202, 203, 204, 205, 206, 207, 208, 209, 210, 211, 212, 213, 214, 215, 216, 217, 218, 219, 220, 221, 222, 223, 224, 225, 226, 227, 228, 229, 230, 231, 232, 233, 234, 235, 236, 237, 238, 239, 240, 241, 242, 243, 244, 245, 246, 247, 248, 249, 250, 251, 252, 253, 254, 255, 256, 257, 258, 259, 260, 261, 262, 263, 264],
      "LargestImagePixelValue": [40695, 39788, 38986, 38377, 38590, 38163, 37623, 37555, 37564, 37815, 37544, 37530, 37558, 37331, 37812, 37627, 37493, 37392, 37620, 37208, 37819, 37466, 37579, 37741, 37492, 37933, 37604, 37897, 37671, 37586, 37775, 37337, 38001, 37609, 37584, 37561, 37715, 37975, 37617, 37621, 37604, 38057, 37460, 37586, 38193, 37644, 37941, 37887, 37972, 37809, 38162, 38226, 37680, 37524, 37533, 37936, 37430, 37468, 37719, 37685, 37551, 37690, 37469, 37949, 37596, 37506, 37413, 37834, 37389, 37862, 38194, 37511, 37561, 37946, 37547, 37721, 37913, 37926, 37665, 37716, 37794, 37897, 37474, 38200, 37745, 37928, 37695, 38248, 37519, 37740, 37873, 38352, 38073, 38266, 38025, 38088, 38371, 38222, 38344, 38069, 37607, 37645, 37922, 38520, 37756, 38239, 38233, 38059, 37752, 38707, 38094, 38277, 38439, 38128, 38575, 38370, 38167, 38308, 37915, 38239, 38044, 38294, 38227, 38181, 38192, 38371, 38024, 38398, 38343, 38147, 38335, 38292, 38243, 37997, 38532, 38122, 38398, 38296, 37875, 37630, 38264, 38425, 38182, 38579, 38350, 37906, 38159, 38442, 37670, 38119, 37835, 37829, 37628, 38129, 37539, 38311, 38335, 38651, 38317, 38380, 38669, 37920, 38158, 38263, 38042, 37970, 38585, 38318, 38456, 37894, 38319, 38512, 37755, 38200, 38107, 37825, 38001, 38094, 38290, 38458, 38423, 37914, 37347, 37760, 37837, 38343, 37889, 38221, 38128, 37619, 38255, 38030, 38340, 37879, 37941, 38255, 37729, 38042, 38471, 38057, 38128, 38405, 38231, 38003, 38495, 38302, 38420, 38207, 38567, 38088, 38291, 38468, 38656, 38230, 38222, 38259, 37980, 37941, 37844, 38219, 37932, 38265, 37747, 37998, 38065, 37777, 38185, 37683, 37933, 38485, 38024, 38078, 37964, 37843, 37927, 38599, 37969, 38141, 38403, 38131, 38330, 38303, 38117, 37968, 38253, 38103, 38390, 38151, 38227, 38325, 38075, 38270, 38545, 38505, 38327, 38268, 38171, 38459, 38102, 38096, 37980, 38107, 38481, 38091],
      "WindowCenter": [10285.0, 10243.0, 10209.0, 10191.0, 10191.0, 10187.0, 10193.0, 10202.0, 10206.0, 10218.0, 10211.0, 10204.0, 10196.0, 10205.0, 10217.0, 10219.0, 10212.0, 10206.0, 10205.0, 10192.0, 10201.0, 10203.0, 10203.0, 10211.0, 10213.0, 10219.0, 10211.0, 10211.0, 10198.0, 10190.0, 10186.0, 10188.0, 10197.0, 10194.0, 10196.0, 10194.0, 10206.0, 10207.0, 10200.0, 10193.0, 10198.0, 10193.0, 10187.0, 10192.0, 10197.0, 10197.0, 10203.0, 10199.0, 10194.0, 10184.0, 10182.0, 10180.0, 10168.0, 10161.0, 10168.0, 10180.0, 10176.0, 10189.0, 10197.0, 10190.0, 10186.0, 10183.0, 10178.0, 10184.0, 10182.0, 10184.0, 10184.0, 10191.0, 10189.0, 10190.0, 10192.0, 10179.0, 10184.0, 10195.0, 10186.0, 10197.0, 10203.0, 10198.0, 10196.0, 10198.0, 10199.0, 10197.0, 10197.0, 10211.0, 10206.0, 10211.0, 10212.0, 10218.0, 10200.0, 10206.0, 10221.0, 10228.0, 10221.0, 10218.0, 10212.0, 10205.0, 10200.0, 10200.0, 10199.0, 10203.0, 10195.0, 10204.0, 10211.0, 10213.0, 10205.0, 10198.0, 10198.0, 10193.0, 10188.0, 10194.0, 10191.0, 10195.0, 10199.0, 10196.0, 10200.0, 10194.0, 10193.0, 10193.0, 10195.0, 10196.0, 10196.0, 10202.0, 10198.0, 10202.0, 10201.0, 10197.0, 10195.0, 10202.0, 10207.0, 10206.0, 10207.0, 10204.0, 10206.0, 10207.0, 10209.0, 10196.0, 10203.0, 10203.0, 10196.0, 10189.0, 10199.0, 10197.0, 10188.0, 10204.0, 10200.0, 10187.0, 10187.0, 10181.0, 10166.0, 10164.0, 10164.0, 10157.0, 10163.0, 10183.0, 10189.0, 10208.0, 10204.0, 10202.0, 10187.0, 10184.0, 10184.0, 10184.0, 10185.0, 10198.0, 10189.0, 10201.0, 10200.0, 10195.0, 10192.0, 10189.0, 10193.0, 10185.0, 10173.0, 10176.0, 10179.0, 10180.0, 10187.0, 10186.0, 10185.0, 10184.0, 10176.0, 10161.0, 10175.0, 10187.0, 10188.0, 10187.0, 10181.0, 10185.0, 10172.0, 10164.0, 10169.0, 10177.0, 10183.0, 10174.0, 10179.0, 10173.0, 10165.0, 10163.0, 10162.0, 10155.0, 10166.0, 10168.0, 10163.0, 10169.0, 10178.0, 10179.0, 10184.0, 10186.0, 10198.0, 10188.0, 10186.0, 10181.0, 10181.0, 10171.0, 10171.0, 10169.0, 10168.0, 10164.0, 10165.0, 10176.0, 10170.0, 10169.0, 10163.0, 10171.0, 10178.0, 10186.0, 10188.0, 10187.0, 10193.0, 10192.0, 10186.0, 10179.0, 10186.0, 10186.0, 10194.0, 10205.0, 10200.0, 10203.0, 10209.0, 10203.0, 10201.0, 10201.0, 10188.0, 10186.0, 10193.0, 10193.0, 10198.0, 10202.0, 10208.0, 10207.0, 10204.0, 10207.0, 10206.0, 10201.0, 10193.0, 10191.0, 10187.0, 10185.0, 10191.0, 10197.0, 10189.0, 10188.0, 10190.0, 10186.0],
      "WindowWidth": [22313.0, 22175.0, 22073.0, 22019.0, 22008.0, 21994.0, 22007.0, 22028.0, 22042.0, 22065.0, 22047.0, 22029.0, 22013.0, 22032.0, 22061.0, 22066.0, 22050.0, 22038.0, 22034.0, 22008.0, 22025.0, 22030.0, 22031.0, 22051.0, 22056.0, 22066.0, 22049.0, 22048.0, 22020.0, 21998.0, 21989.0, 21991.0, 22013.0, 22006.0, 22013.0, 22008.0, 22035.0, 22035.0, 22017.0, 22004.0, 22013.0, 22001.0, 21990.0, 22002.0, 22013.0, 22012.0, 22025.0, 22016.0, 22005.0, 21981.0, 21974.0, 21968.0, 21941.0, 21929.0, 21944.0, 21969.0, 21965.0, 21996.0, 22013.0, 21999.0, 21990.0, 21978.0, 21966.0, 21979.0, 21978.0, 21984.0, 21986.0, 22000.0, 21996.0, 21996.0, 21997.0, 21973.0, 21985.0, 22006.0, 21991.0, 22017.0, 22027.0, 22015.0, 22014.0, 22018.0, 22021.0, 22015.0, 22016.0, 22045.0, 22036.0, 22045.0, 22048.0, 22062.0, 22024.0, 22038.0, 22070.0, 22085.0, 22069.0, 22063.0, 22051.0, 22033.0, 22017.0, 22015.0, 22013.0, 22024.0, 22008.0, 22028.0, 22043.0, 22048.0, 22032.0, 22015.0, 22011.0, 22000.0, 21991.0, 22000.0, 21993.0, 22006.0, 22014.0, 22008.0, 22015.0, 22002.0, 21999.0, 22001.0, 22005.0, 22010.0, 22009.0, 22021.0, 22014.0, 22021.0, 22020.0, 22009.0, 22006.0, 22022.0, 22031.0, 22032.0, 22031.0, 22026.0, 22031.0, 22033.0, 22037.0, 22010.0, 22025.0, 22024.0, 22010.0, 21994.0, 22015.0, 22008.0, 21991.0, 22022.0, 22015.0, 21990.0, 21988.0, 21975.0, 21940.0, 21936.0, 21937.0, 21920.0, 21935.0, 21979.0, 21999.0, 22041.0, 22032.0, 22023.0, 21988.0, 21979.0, 21976.0, 21976.0, 21982.0, 22009.0, 21996.0, 22020.0, 22016.0, 22003.0, 21998.0, 21992.0, 21997.0, 21978.0, 21954.0, 21959.0, 21965.0, 21970.0, 21985.0, 21982.0, 21980.0, 21974.0, 21955.0, 21925.0, 21960.0, 21987.0, 21991.0, 21988.0, 21976.0, 21984.0, 21955.0, 21936.0, 21944.0, 21964.0, 21977.0, 21961.0, 21969.0, 21954.0, 21936.0, 21930.0, 21926.0, 21913.0, 21937.0, 21940.0, 21932.0, 21944.0, 21963.0, 21966.0, 21980.0, 21985.0, 22011.0, 21992.0, 21986.0, 21972.0, 21969.0, 21947.0, 21946.0, 21942.0, 21940.0, 21935.0, 21939.0, 21961.0, 21947.0, 21944.0, 21930.0, 21948.0, 21964.0, 21984.0, 21990.0, 21989.0, 21999.0, 21998.0, 21982.0, 21968.0, 21985.0, 21984.0, 22001.0, 22023.0, 22015.0, 22025.0, 22036.0, 22024.0, 22019.0, 22018.0, 21990.0, 21986.0, 22000.0, 21999.0, 22012.0, 22023.0, 22034.0, 22034.0, 22028.0, 22033.0, 22030.0, 22017.0, 22001.0, 21995.0, 21984.0, 21981.0, 21994.0, 22008.0, 21994.0, 21990.0, 21993.0, 21984.0]
    },
    "slices": {}
  }
}