{
  "AcquisitionMatrixPE": 104,
  "AcquisitionNumber": 1,
  "AcquisitionTime": "14:34:35.482500",
  "BandwidthPerPixelPhaseEncode": 16.578,
  "BaseResolution": 104,
  "BodyPartExamined": "BRAIN",
  "ConsistencyInfo": "N4_VE11C_LATEST_20160120",
  "ConversionSoftware": "dcm2niix",
  "ConversionSoftwareVersion": "v1.0.20190410  GCC6.3.0",
  "DerivedVendorReportedEchoSpacing": 0.000580009,
  "DeviceSerialNumber": "166018",
  "DwellTime": 2.1e-06,
  "EchoTime": 0.037,
  "EchoTrainLength": 104,
  "EffectiveEchoSpacing": 0.000580009,
  "FlipAngle": 68,
  "ImageComments": "Unaliased_MB6_PE3_LB",
  "ImageOrientationPatientDICOM": [0.997547, -0.0602919, -0.0355546, 0.0479156, 0.958503, -0.281028],
  "ImageType": [
    "ORIGINAL",
    "PRIMARY",
    "M",
    "MB",
    "ND",
    "MOSAIC"
],
  "ImagingFrequency": 123.191,
  "InPlanePhaseEncodingDirectionDICOM": "COL",
  "InstitutionAddress": "Washington_Place_6_NYC_NYC_US_10003",
  "InstitutionName": "NYU_Center_for_Brain_Imaging",
  "InstitutionalDepartmentName": "Department",
  "MRAcquisitionType": "2D",
  "MagneticFieldStrength": 3,
  "Manufacturer": "Siemens",
  "ManufacturersModelName": "Prisma",
  "Modality": "MR",
  "MultibandAccelerationFactor": 6,
  "PartialFourier": 1,
  "PatientPosition": "HFS",
  "PercentPhaseFOV": 100,
  "PhaseEncodingDirection": "j",
  "PhaseEncodingSteps": 104,
  "PhaseResolution": 1,
  "PixelBandwidth": 2290,
  "ProcedureStepDescription": "Investigators_Winawer",
  "ProtocolName": "task-sfprescaled_cmrr_mbepi_s6_2mm_66sl_PA_TR1.0",
  "PulseSequenceDetails": "%CustomerSeq%_cmrr_mbep2d_bold",
  "ReceiveCoilActiveElements": "HC1-7",
  "ReceiveCoilName": "HeadNeck_64",
  "ReconMatrixPE": 104,
  "RepetitionTime": 1,
  "SAR": 0.0599872,
  "ScanOptions": "FS",
  "ScanningSequence": "EP",
  "SequenceName": "epfid2d1_104",
  "SequenceVariant": "SK_SS",
  "SeriesDescription": "task-sfprescaled_cmrr_mbepi_s6_2mm_66sl_PA_TR1.0",
  "SeriesNumber": 16,
  "ShimSetting": [244, -12533, -8553, 292, -42, 159, -175, 26],
  "SliceThickness": 2,
  "SliceTiming": [0, 0.535, 0.0875, 0.6225, 0.1775, 0.7125, 0.2675, 0.8, 0.355, 0.89, 0.445, 0, 0.535, 0.0875, 0.6225, 0.1775, 0.7125, 0.2675, 0.8, 0.355, 0.89, 0.445, 0, 0.535, 0.0875, 0.6225, 0.1775, 0.7125, 0.2675, 0.8, 0.355, 0.89, 0.445, 0, 0.535, 0.0875, 0.6225, 0.1775, 0.7125, 0.2675, 0.8, 0.355, 0.89, 0.445, 0, 0.535, 0.0875, 0.6225, 0.1775, 0.7125, 0.2675, 0.8, 0.355, 0.89, 0.445, 0, 0.535, 0.0875, 0.6225, 0.1775, 0.7125, 0.2675, 0.8, 0.355, 0.89, 0.445],
  "SoftwareVersions": "syngo_MR_E11",
  "SpacingBetweenSlices": 2,
  "StationName": "AWP166018",
  "TaskName": "sfprescaled",
  "TotalReadoutTime": 0.0597409,
  "TxRefAmp": 201.638,
  "WipMemBlock": "e446e14a-dced-4007-87d9-d2781c55cea2||Sequence: R016 ve11c/master r/8780670; Nov 27 2017 15:05:12 by eja",
  "dcmmeta_affine": [
    [-1.9950947761535645, 0.09583121538162231, -0.10204588621854782, 113.34072875976562],
    [0.12058382481336594, 1.9170050621032715, -0.5572711229324341, -73.6729507446289],
    [-0.07110926508903503, 0.5620568990707397, 1.9180811643600464, -78.0055923461914],
    [0.0, 0.0, 0.0, 1.0]
],
  "dcmmeta_reorient_transform": [
    [0.0, -1.0, 0.0, 103.0],
    [1.0, 0.0, 0.0, 0.0],
    [0.0, 0.0, 1.0, 0.0],
    [0.0, 0.0, 0.0, 1.0]
],
  "dcmmeta_shape": [104, 104, 66, 264],
  "dcmmeta_slice_dim": 2,
  "dcmmeta_version": 0.6,
  "global": {
    "const": {
      "AccessionNumber": "k5onhzs7",
      "AcquisitionMatrix": [104, 0, 0, 104],
      "AngioFlag": "N",
      "BitsAllocated": 16,
      "BitsStored": 16,
      "BodyPartExamined": "BRAIN",
      "Columns": 936,
      "EchoNumbers": 1,
      "EchoTime": 37.0,
      "EchoTrainLength": 104,
      "FlipAngle": 68.0,
      "HighBit": 15,
      "ImageOrientationPatient": [0.99754736907445, -0.0602919119506, -0.0355546312874, 0.04791560694718, 0.95850253404615, -0.2810284448913],
      "ImagePositionPatient": [-993.03653895377, -871.08980635917, 243.28338726346],
      "ImageType": [
        "ORIGINAL",
        "PRIMARY",
        "M",
        "MB",
        "ND",
        "MOSAIC"
],
      "ImagedNucleus": "1H",
      "ImagingFrequency": 123.190782,
      "InPlanePhaseEncodingDirection": "COL",
      "MRAcquisitionType": "2D",
      "MagneticFieldStrength": 3.0,
      "Manufacturer": "SIEMENS",
      "ManufacturerModelName": "Prisma",
      "Modality": "MR",
      "NumberOfAverages": 1.0,
      "NumberOfPhaseEncodingSteps": 104,
      "PercentPhaseFieldOfView": 100.0,
      "PercentSampling": 100.0,
      "PerformedProcedureStepStartTime": "140037.811000",
      "PhotometricInterpretation": "MONOCHROME2",
      "PixelBandwidth": 2290.0,
      "PixelRepresentation": 0,
      "PixelSpacing": [2.0, 2.0],
      "ProtocolName": "task-sfprescaled_cmrr_mbepi_s6_2mm_66sl_PA_TR1.0",
      "RepetitionTime": 1000.0,
      "Rows": 936,
      "SAR": 0.05998716687588,
      "SamplesPerPixel": 1,
      "ScanOptions": "FS",
      "ScanningSequence": "EP",
      "SequenceName": "epfid2d1_104",
      "SequenceVariant": [
        "SK",
        "SS"
],
      "SeriesDescription": "task-sfprescaled_cmrr_mbepi_s6_2mm_66sl_PA_TR1.0",
      "SeriesNumber": 16,
      "SeriesTime": "143535.590000",
      "SliceLocation": -60.065602895364,
      "SliceThickness": 2.0,
      "SmallestImagePixelValue": 0,
      "SoftwareVersions": "syngo MR E11",
      "SpacingBetweenSlices": 1.9999999262666,
      "SpecificCharacterSet": "ISO_IR 100",
      "StudyID": "1",
      "StudyTime": "140037.749000",
      "TransmitCoilName": "Body",
      "VariableFlipAngleFlag": "N",
      "WindowCenterWidthExplanation": "Algo1",
      "dBdt": 0.0},
    "slices": {}
  },
  "time": {
    "samples": {
      "AcquisitionNumber": [1, 2, 3, 4, 5, 6, 7, 8, 9, 10, 11, 12, 13, 14, 15, 16, 17, 18, 19, 20, 21, 22, 23, 24, 25, 26, 27, 28, 29, 30, 31, 32, 33, 34, 35, 36, 37, 38, 39, 40, 41, 42, 43, 44, 45, 46, 47, 48, 49, 50, 51, 52, 53, 54, 55, 56, 57, 58, 59, 60, 61, 62, 63, 64, 65, 66, 67, 68, 69, 70, 71, 72, 73, 74, 75, 76, 77, 78, 79, 80, 81, 82, 83, 84, 85, 86, 87, 88, 89, 90, 91, 92, 93, 94, 95, 96, 97, 98, 99, 100, 101, 102, 103, 104, 105, 106, 107, 108, 109, 110, 111, 112, 113, 114, 115, 116, 117, 118, 119, 120, 121, 122, 123, 124, 125, 126, 127, 128, 129, 130, 131, 132, 133, 134, 135, 136, 137, 138, 139, 140, 141, 142, 143, 144, 145, 146, 147, 148, 149, 150, 151, 152, 153, 154, 155, 156, 157, 158, 159, 160, 161, 162, 163, 164, 165, 166, 167, 168, 169, 170, 171, 172, 173, 174, 175, 176, 177, 178, 179, 180, 181, 182, 183, 184, 185, 186, 187, 188, 189, 190, 191, 192, 193, 194, 195, 196, 197, 198, 199, 200, 201, 202, 203, 204, 205, 206, 207, 208, 209, 210, 211, 212, 213, 214, 215, 216, 217, 218, 219, 220, 221, 222, 223, 224, 225, 226, 227, 228, 229, 230, 231, 232, 233, 234, 235, 236, 237, 238, 239, 240, 241, 242, 243, 244, 245, 246, 247, 248, 249, 250, 251, 252, 253, 254, 255, 256, 257, 258, 259, 260, 261, 262, 263, 264],
      "AcquisitionTime": ["143435.482500", "143436.482500", "143437.482500", "143438.482500", "143439.482500", "143440.482500", "143441.482500", "143442.482500", "143443.482500", "143444.482500", "143445.482500", "143446.482500", "143447.482500", "143448.482500", "143449.482500", "143450.482500", "143451.482500", "143452.482500", "143453.482500", "143454.482500", "143455.482500", "143456.482500", "143457.482500", "143458.482500", "143459.482500", "143500.482500", "143501.482500", "143502.482500", "143503.482500", "143504.482500", "143505.482500", "143506.482500", "143507.482500", "143508.482500", "143509.482500", "143510.482500", "143511.482500", "143512.482500", "143513.482500", "143514.482500", "143515.482500", "143516.482500", "143517.482500", "143518.482500", "143519.482500", "143520.482500", "143521.482500", "143522.482500", "143523.482500", "143524.482500", "143525.482500", "143526.482500", "143527.482500", "143528.482500", "143529.482500", "143530.482500", "143531.482500", "143532.482500", "143533.482500", "143534.482500", "143535.482500", "143536.482500", "143537.482500", "143538.482500", "143539.482500", "143540.482500", "143541.482500", "143542.482500", "143543.482500", "143544.482500", "143545.482500", "143546.482500", "143547.482500", "143548.482500", "143549.482500", "143550.482500", "143551.482500", "143552.482500", "143553.482500", "143554.482500", "143555.482500", "143556.482500", "143557.482500", "143558.482500", "143559.482500", "143600.482500", "143601.482500", "143602.482500", "143603.482500", "143604.482500", "143605.482500", "143606.482500", "143607.482500", "143608.482500", "143609.482500", "143610.482500", "143611.482500", "143612.482500", "143613.482500", "143614.482500", "143615.482500", "143616.482500", "143617.482500", "143618.482500", "143619.482500", "143620.482500", "143621.482500", "143622.482500", "143623.482500", "143624.482500", "143625.482500", "143626.482500", "143627.482500", "143628.482500", "143629.482500", "143630.482500", "143631.482500", "143632.482500", "143633.482500", "143634.482500", "143635.482500", "143636.482500", "143637.482500", "143638.482500", "143639.482500", "143640.482500", "143641.482500", "143642.482500", "143643.482500", "143644.482500", "143645.482500", "143646.482500", "143647.482500", "143648.482500", "143649.482500", "143650.482500", "143651.482500", "143652.482500", "143653.482500", "143654.482500", "143655.482500", "143656.482500", "143657.482500", "143658.482500", "143659.482500", "143700.482500", "143701.482500", "143702.482500", "143703.482500", "143704.482500", "143705.482500", "143706.482500", "143707.482500", "143708.482500", "143709.482500", "143710.482500", "143711.482500", "143712.482500", "143713.482500", "143714.482500", "143715.482500", "143716.482500", "143717.482500", "143718.482500", "143719.482500", "143720.482500", "143721.482500", "143722.482500", "143723.482500", "143724.482500", "143725.482500", "143726.482500", "143727.482500", "143728.482500", "143729.482500", "143730.482500", "143731.482500", "143732.482500", "143733.482500", "143734.482500", "143735.482500", "143736.482500", "143737.482500", "143738.482500", "143739.482500", "143740.482500", "143741.482500", "143742.482500", "143743.482500", "143744.482500", "143745.482500", "143746.482500", "143747.482500", "143748.482500", "143749.482500", "143750.482500", "143751.482500", "143752.482500", "143753.482500", "143754.482500", "143755.482500", "143756.482500", "143757.482500", "143758.482500", "143759.482500", "143800.482500", "143801.482500", "143802.482500", "143803.482500", "143804.482500", "143805.482500", "143806.482500", "143807.482500", "143808.482500", "143809.482500", "143810.482500", "143811.482500", "143812.482500", "143813.482500", "143814.482500", "143815.482500", "143816.482500", "143817.482500", "143818.482500", "143819.482500", "143820.482500", "143821.482500", "143822.482500", "143823.482500", "143824.482500", "143825.482500", "143826.482500", "143827.482500", "143828.482500", "143829.482500", "143830.482500", "143831.482500", "143832.482500", "143833.482500", "143834.482500", "143835.482500", "143836.482500", "143837.482500", "143838.482500", "143839.482500", "143840.482500", "143841.482500", "143842.482500", "143843.482500", "143844.482500", "143845.482500", "143846.482500", "143847.482500", "143848.482500", "143849.482500", "143850.482500", "143851.482500", "143852.482500", "143853.482500", "143854.482500", "143855.482500", "143856.482500", "143857.482500", "143858.482500"],
      "ContentTime": ["143535.593000", "143535.596000", "143535.599000", "143535.602000", "143535.605000", "143535.607000", "143540.563000", "143540.566000", "143540.569000", "143540.572000", "143540.574000", "143540.577000", "143540.580000", "143545.563000", "143545.571000", "143545.582000", "143545.585000", "143545.587000", "143545.590000", "143545.593000", "143550.564000", "143550.567000", "143550.570000", "143550.572000", "143550.575000", "143550.578000", "143550.581000", "143555.563000", "143555.566000", "143555.569000", "143555.572000", "143555.575000", "143555.577000", "143555.580000", "143600.563000", "143600.566000", "143600.569000", "143600.572000", "143600.575000", "143600.577000", "143600.580000", "143605.563000", "143605.566000", "143605.569000", "143605.571000", "143605.574000", "143605.577000", "143605.580000", "143605.583000", "143610.563000", "143610.566000", "143610.569000", "143610.571000", "143610.574000", "143610.577000", "143610.580000", "143615.563000", "143615.566000", "143615.569000", "143615.571000", "143615.574000", "143615.577000", "143615.580000", "143620.563000", "143620.566000", "143620.569000", "143620.572000", "143620.574000", "143620.577000", "143620.580000", "143625.564000", "143625.567000", "143625.570000", "143625.573000", "143625.575000", "143625.578000", "143625.581000", "143630.563000", "143630.566000", "143630.569000", "143630.571000", "143630.574000", "143630.577000", "143630.580000", "143635.563000", "143635.566000", "143635.569000", "143635.572000", "143635.575000", "143635.577000", "143635.580000", "143640.563000", "143640.566000", "143640.569000", "143640.571000", "143640.574000", "143640.577000", "143640.580000", "143645.577000", "143645.580000", "143645.583000", "143645.586000", "143645.588000", "143645.591000", "143645.594000", "143650.563000", "143650.566000", "143650.569000", "143650.571000", "143650.574000", "143650.577000", "143650.580000", "143655.563000", "143655.566000", "143655.569000", "143655.572000", "143655.575000", "143655.577000", "143655.580000", "143700.564000", "143700.567000", "143700.570000", "143700.572000", "143700.575000", "143700.578000", "143700.581000", "143705.563000", "143705.566000", "143705.569000", "143705.572000", "143705.574000", "143705.577000", "143705.580000", "143710.563000", "143710.566000", "143710.569000", "143710.572000", "143710.575000", "143710.578000", "143710.580000", "143715.563000", "143715.566000", "143715.569000", "143715.572000", "143715.574000", "143715.577000", "143715.580000", "143720.563000", "143720.566000", "143720.569000", "143720.571000", "143720.574000", "143720.577000", "143720.580000", "143720.583000", "143725.563000", "143725.566000", "143725.569000", "143725.571000", "143725.574000", "143725.577000", "143725.580000", "143730.563000", "143730.566000", "143730.569000", "143730.572000", "143730.574000", "143730.577000", "143730.580000", "143735.564000", "143735.567000", "143735.570000", "143735.573000", "143735.575000", "143735.578000", "143735.581000", "143740.563000", "143740.566000", "143740.569000", "143740.571000", "143740.583000", "143740.586000", "143740.589000", "143745.563000", "143745.566000", "143745.569000", "143745.572000", "143745.575000", "143745.578000", "143750.563000", "143750.566000", "143750.569000", "143750.572000", "143750.575000", "143755.563000", "143755.566000", "143755.569000", "143755.572000", "143755.575000", "143800.563000", "143800.566000", "143800.569000", "143800.572000", "143800.574000", "143805.563000", "143805.566000", "143805.569000", "143805.572000", "143805.574000", "143810.564000", "143810.567000", "143810.570000", "143810.573000", "143810.575000", "143815.563000", "143815.566000", "143815.569000", "143815.572000", "143815.575000", "143820.563000", "143820.566000", "143820.569000", "143820.572000", "143820.575000", "143825.563000", "143825.566000", "143825.569000", "143825.572000", "143825.575000", "143830.563000", "143830.566000", "143830.569000", "143830.572000", "143830.575000", "143835.563000", "143835.566000", "143835.569000", "143835.572000", "143835.575000", "143840.563000", "143840.566000", "143840.569000", "143840.572000", "143840.575000", "143845.564000", "143845.567000", "143845.570000", "143845.573000", "143845.576000", "143850.563000", "143850.566000", "143850.569000", "143850.572000", "143850.575000", "143855.563000", "143855.566000", "143855.569000", "143855.572000", "143855.574000", "143859.942000", "143859.945000", "143859.948000", "143859.951000", "143859.954000"],
      "InstanceCreationTime": ["143535.593000", "143535.596000", "143535.599000", "143535.602000", "143535.605000", "143535.607000", "143540.563000", "143540.566000", "143540.569000", "143540.572000", "143540.574000", "143540.577000", "143540.580000", "143545.563000", "143545.571000", "143545.582000", "143545.585000", "143545.587000", "143545.590000", "143545.593000", "143550.564000", "143550.567000", "143550.570000", "143550.572000", "143550.575000", "143550.578000", "143550.581000", "143555.563000", "143555.566000", "143555.569000", "143555.572000", "143555.575000", "143555.577000", "143555.580000", "143600.563000", "143600.566000", "143600.569000", "143600.572000", "143600.575000", "143600.577000", "143600.580000", "143605.563000", "143605.566000", "143605.569000", "143605.571000", "143605.574000", "143605.577000", "143605.580000", "143605.583000", "143610.563000", "143610.566000", "143610.569000", "143610.571000", "143610.574000", "143610.577000", "143610.580000", "143615.563000", "143615.566000", "143615.569000", "143615.571000", "143615.574000", "143615.577000", "143615.580000", "143620.563000", "143620.566000", "143620.569000", "143620.572000", "143620.574000", "143620.577000", "143620.580000", "143625.564000", "143625.567000", "143625.570000", "143625.573000", "143625.575000", "143625.578000", "143625.581000", "143630.563000", "143630.566000", "143630.569000", "143630.571000", "143630.574000", "143630.577000", "143630.580000", "143635.563000", "143635.566000", "143635.569000", "143635.572000", "143635.575000", "143635.577000", "143635.580000", "143640.563000", "143640.566000", "143640.569000", "143640.571000", "143640.574000", "143640.577000", "143640.580000", "143645.577000", "143645.580000", "143645.583000", "143645.586000", "143645.588000", "143645.591000", "143645.594000", "143650.563000", "143650.566000", "143650.569000", "143650.571000", "143650.574000", "143650.577000", "143650.580000", "143655.563000", "143655.566000", "143655.569000", "143655.572000", "143655.575000", "143655.577000", "143655.580000", "143700.564000", "143700.567000", "143700.570000", "143700.572000", "143700.575000", "143700.578000", "143700.581000", "143705.563000", "143705.566000", "143705.569000", "143705.572000", "143705.574000", "143705.577000", "143705.580000", "143710.563000", "143710.566000", "143710.569000", "143710.572000", "143710.575000", "143710.578000", "143710.580000", "143715.563000", "143715.566000", "143715.569000", "143715.572000", "143715.574000", "143715.577000", "143715.580000", "143720.563000", "143720.566000", "143720.569000", "143720.571000", "143720.574000", "143720.577000", "143720.580000", "143720.583000", "143725.563000", "143725.566000", "143725.569000", "143725.571000", "143725.574000", "143725.577000", "143725.580000", "143730.563000", "143730.566000", "143730.569000", "143730.572000", "143730.574000", "143730.577000", "143730.580000", "143735.564000", "143735.567000", "143735.570000", "143735.573000", "143735.575000", "143735.578000", "143735.581000", "143740.563000", "143740.566000", "143740.569000", "143740.571000", "143740.583000", "143740.586000", "143740.589000", "143745.563000", "143745.566000", "143745.569000", "143745.572000", "143745.575000", "143745.578000", "143750.563000", "143750.566000", "143750.569000", "143750.572000", "143750.575000", "143755.563000", "143755.566000", "143755.569000", "143755.572000", "143755.575000", "143800.563000", "143800.566000", "143800.569000", "143800.572000", "143800.574000", "143805.563000", "143805.566000", "143805.569000", "143805.572000", "143805.574000", "143810.564000", "143810.567000", "143810.570000", "143810.573000", "143810.575000", "143815.563000", "143815.566000", "143815.569000", "143815.572000", "143815.575000", "143820.563000", "143820.566000", "143820.569000", "143820.572000", "143820.575000", "143825.563000", "143825.566000", "143825.569000", "143825.572000", "143825.575000", "143830.563000", "143830.566000", "143830.569000", "143830.572000", "143830.575000", "143835.563000", "143835.566000", "143835.569000", "143835.572000", "143835.575000", "143840.563000", "143840.566000", "143840.569000", "143840.572000", "143840.575000", "143845.564000", "143845.567000", "143845.570000", "143845.573000", "143845.576000", "143850.563000", "143850.566000", "143850.569000", "143850.572000", "143850.575000", "143855.563000", "143855.566000", "143855.569000", "143855.572000", "143855.574000", "143859.942000", "143859.945000", "143859.948000", "143859.951000", "143859.954000"],
      "InstanceNumber": [1, 2, 3, 4, 5, 6, 7, 8, 9, 10, 11, 12, 13, 14, 15, 16, 17, 18, 19, 20, 21, 22, 23, 24, 25, 26, 27, 28, 29, 30, 31, 32, 33, 34, 35, 36, 37, 38, 39, 40, 41, 42, 43, 44, 45, 46, 47, 48, 49, 50, 51, 52, 53, 54, 55, 56, 57, 58, 59, 60, 61, 62, 63, 64, 65, 66, 67, 68, 69, 70, 71, 72, 73, 74, 75, 76, 77, 78, 79, 80, 81, 82, 83, 84, 85, 86, 87, 88, 89, 90, 91, 92, 93, 94, 95, 96, 97, 98, 99, 100, 101, 102, 103, 104, 105, 106, 107, 108, 109, 110, 111, 112, 113, 114, 115, 116, 117, 118, 119, 120, 121, 122, 123, 124, 125, 126, 127, 128, 129, 130, 131, 132, 133, 134, 135, 136, 137, 138, 139, 140, 141, 142, 143, 144, 145, 146, 147, 148, 149, 150, 151, 152, 153, 154, 155, 156, 157, 158, 159, 160, 161, 162, 163, 164, 165, 166, 167, 168, 169, 170, 171, 172, 173, 174, 175, 176, 177, 178, 179, 180, 181, 182, 183, 184, 185, 186, 187, 188, 189, 190, 191, 192, 193, 194, 195, 196, 197, 198, 199, 200, 201, 202, 203, 204, 205, 206, 207, 208, 209, 210, 211, 212, 213, 214, 215, 216, 217, 218, 219, 220, 221, 222, 223, 224, 225, 226, 227, 228, 229, 230, 231, 232, 233, 234, 235, 236, 237, 238, 239, 240, 241, 242, 243, 244, 245, 246, 247, 248, 249, 250, 251, 252, 253, 254, 255, 256, 257, 258, 259, 260, 261, 262, 263, 264],
      "LargestImagePixelValue": [36034, 35224, 34404, 34664, 34551, 34327, 33667, 40313, 36066, 35169, 34195, 34342, 33769, 33605, 34187, 33599, 33997, 34275, 34362, 33737, 34112, 34461, 33906, 33687, 33955, 34126, 33875, 33864, 33922, 34088, 34045, 33904, 33745, 33877, 34243, 33800, 33974, 34002, 34366, 33644, 33760, 34358, 33595, 33277, 33808, 34353, 33581, 33478, 33885, 33923, 33359, 33876, 34111, 34173, 33851, 33747, 33460, 33990, 33989, 33678, 33842, 33921, 33760, 33607, 34113, 34161, 34081, 33931, 34378, 33499, 33603, 34068, 33790, 33724, 34144, 33586, 34190, 34181, 34130, 33700, 34112, 33770, 33517, 33991, 33339, 33774, 34457, 34063, 33619, 33965, 34472, 33773, 33989, 33843, 34229, 34086, 33970, 34172, 33964, 34337, 34492, 33921, 34553, 34919, 34419, 34131, 34529, 34251, 34041, 34407, 34123, 34148, 34139, 34082, 33809, 33932, 33862, 33801, 33924, 33775, 34147, 33606, 34064, 34098, 33989, 33667, 33811, 33861, 33471, 33958, 33779, 33612, 34070, 33937, 33639, 34095, 34124, 34192, 33859, 33933, 34006, 34048, 34455, 34157, 33791, 33733, 34073, 33950, 33659, 34033, 33470, 34086, 34041, 33996, 34229, 33854, 34178, 34214, 34410, 34331, 34051, 33916, 34207, 34091, 34366, 34422, 34546, 34375, 34563, 34125, 34576, 34149, 34435, 34873, 34337, 34799, 34369, 34635, 34768, 34599, 34079, 34243, 33976, 33684, 34123, 33732, 33914, 33848, 34114, 34231, 34137, 34078, 33940, 33809, 33913, 34189, 33753, 33956, 33908, 33810, 33907, 34268, 33703, 34448, 34260, 33881, 34013, 33892, 33911, 34195, 33749, 33775, 33932, 34003, 34661, 34376, 34057, 33671, 34172, 34270, 34050, 34148, 34662, 34674, 34445, 34517, 34508, 34086, 33952, 34818, 33805, 34445, 34613, 34117, 33868, 33957, 33942, 33962, 33864, 34724, 34383, 34317, 34387, 34258, 34626, 35141, 34375, 34874, 34569, 34739, 34381, 33997, 34199, 34218, 34306, 34718, 33552, 33965, 33825, 33922, 33957, 33833, 34272, 33717],
      "WindowCenter": [9486.0, 9445.0, 9427.0, 9426.0, 9424.0, 9411.0, 9412.0, 9470.0, 9436.0, 9431.0, 9419.0, 9410.0, 9402.0, 9395.0, 9401.0, 9395.0, 9403.0, 9410.0, 9405.0, 9408.0, 9407.0, 9406.0, 9398.0, 9398.0, 9399.0, 9397.0, 9397.0, 9398.0, 9398.0, 9405.0, 9404.0, 9400.0, 9391.0, 9381.0, 9386.0, 9385.0, 9385.0, 9392.0, 9392.0, 9387.0, 9394.0, 9393.0, 9386.0, 9387.0, 9394.0, 9403.0, 9404.0, 9406.0, 9414.0, 9413.0, 9408.0, 9413.0, 9411.0, 9409.0, 9403.0, 9398.0, 9398.0, 9403.0, 9403.0, 9389.0, 9387.0, 9393.0, 9394.0, 9397.0, 9410.0, 9402.0, 9403.0, 9396.0, 9402.0, 9404.0, 9398.0, 9396.0, 9389.0, 9381.0, 9394.0, 9389.0, 9394.0, 9402.0, 9395.0, 9389.0, 9404.0, 9405.0, 9421.0, 9431.0, 9427.0, 9423.0, 9413.0, 9390.0, 9374.0, 9380.0, 9383.0, 9377.0, 9383.0, 9386.0, 9394.0, 9402.0, 9396.0, 9395.0, 9389.0, 9386.0, 9386.0, 9384.0, 9383.0, 9392.0, 9385.0, 9387.0, 9400.0, 9387.0, 9378.0, 9387.0, 9382.0, 9383.0, 9393.0, 9401.0, 9396.0, 9397.0, 9403.0, 9389.0, 9387.0, 9378.0, 9385.0, 9377.0, 9385.0, 9400.0, 9402.0, 9405.0, 9412.0, 9410.0, 9395.0, 9385.0, 9377.0, 9377.0, 9385.0, 9387.0, 9388.0, 9401.0, 9402.0, 9403.0, 9404.0, 9413.0, 9412.0, 9403.0, 9403.0, 9402.0, 9395.0, 9397.0, 9405.0, 9405.0, 9397.0, 9403.0, 9395.0, 9402.0, 9404.0, 9398.0, 9402.0, 9396.0, 9399.0, 9395.0, 9409.0, 9412.0, 9413.0, 9417.0, 9416.0, 9417.0, 9410.0, 9410.0, 9402.0, 9402.0, 9408.0, 9401.0, 9410.0, 9410.0, 9410.0, 9409.0, 9403.0, 9402.0, 9396.0, 9402.0, 9401.0, 9400.0, 9393.0, 9400.0, 9395.0, 9388.0, 9394.0, 9388.0, 9387.0, 9394.0, 9400.0, 9401.0, 9403.0, 9404.0, 9411.0, 9404.0, 9396.0, 9400.0, 9386.0, 9387.0, 9387.0, 9379.0, 9387.0, 9395.0, 9397.0, 9417.0, 9404.0, 9414.0, 9406.0, 9395.0, 9393.0, 9397.0, 9385.0, 9387.0, 9394.0, 9396.0, 9410.0, 9419.0, 9422.0, 9416.0, 9421.0, 9415.0, 9398.0, 9386.0, 9385.0, 9377.0, 9383.0, 9385.0, 9392.0, 9396.0, 9397.0, 9409.0, 9397.0, 9403.0, 9401.0, 9402.0, 9403.0, 9405.0, 9405.0, 9405.0, 9408.0, 9418.0, 9399.0, 9396.0, 9392.0, 9385.0, 9399.0, 9407.0, 9394.0, 9398.0, 9395.0, 9391.0, 9391.0, 9385.0, 9385.0, 9384.0, 9394.0, 9398.0, 9386.0, 9394.0, 9396.0, 9402.0, 9396.0, 9394.0, 9394.0, 9387.0],
      "WindowWidth": [20172.0, 20076.0, 20030.0, 20027.0, 20019.0, 19990.0, 19992.0, 20091.0, 20032.0, 20025.0, 20003.0, 19980.0, 19963.0, 19950.0, 19959.0, 19953.0, 19969.0, 19984.0, 19980.0, 19989.0, 19987.0, 19984.0, 19971.0, 19968.0, 19972.0, 19966.0, 19967.0, 19972.0, 19973.0, 19985.0, 19983.0, 19976.0, 19957.0, 19932.0, 19937.0, 19935.0, 19933.0, 19944.0, 19947.0, 19942.0, 19956.0, 19953.0, 19940.0, 19942.0, 19958.0, 19977.0, 19983.0, 19987.0, 20005.0, 20002.0, 19994.0, 19999.0, 19994.0, 19988.0, 19976.0, 19971.0, 19969.0, 19979.0, 19978.0, 19951.0, 19942.0, 19954.0, 19958.0, 19966.0, 19991.0, 19975.0, 19976.0, 19962.0, 19969.0, 19973.0, 19965.0, 19963.0, 19948.0, 19935.0, 19962.0, 19951.0, 19959.0, 19976.0, 19963.0, 19952.0, 19981.0, 19986.0, 20021.0, 20043.0, 20035.0, 20022.0, 19998.0, 19950.0, 19918.0, 19930.0, 19930.0, 19920.0, 19931.0, 19937.0, 19958.0, 19979.0, 19968.0, 19965.0, 19951.0, 19942.0, 19943.0, 19934.0, 19930.0, 19952.0, 19941.0, 19948.0, 19974.0, 19945.0, 19919.0, 19928.0, 19925.0, 19931.0, 19954.0, 19973.0, 19964.0, 19969.0, 19978.0, 19951.0, 19942.0, 19922.0, 19932.0, 19916.0, 19932.0, 19967.0, 19978.0, 19987.0, 19997.0, 19990.0, 19954.0, 19929.0, 19915.0, 19917.0, 19938.0, 19946.0, 19949.0, 19973.0, 19978.0, 19981.0, 19984.0, 20006.0, 20003.0, 19980.0, 19980.0, 19976.0, 19965.0, 19971.0, 19991.0, 19990.0, 19967.0, 19973.0, 19958.0, 19975.0, 19984.0, 19973.0, 19979.0, 19968.0, 19980.0, 19968.0, 19996.0, 20005.0, 20004.0, 20006.0, 20003.0, 20006.0, 19996.0, 19995.0, 19980.0, 19981.0, 19989.0, 19973.0, 19994.0, 19997.0, 19999.0, 19995.0, 19985.0, 19980.0, 19969.0, 19980.0, 19976.0, 19972.0, 19960.0, 19973.0, 19964.0, 19949.0, 19962.0, 19951.0, 19947.0, 19962.0, 19970.0, 19974.0, 19979.0, 19984.0, 19997.0, 19982.0, 19966.0, 19966.0, 19941.0, 19946.0, 19943.0, 19929.0, 19948.0, 19965.0, 19976.0, 20013.0, 19989.0, 20011.0, 19994.0, 19963.0, 19952.0, 19957.0, 19935.0, 19945.0, 19962.0, 19967.0, 19996.0, 20019.0, 20028.0, 20017.0, 20025.0, 20012.0, 19973.0, 19943.0, 19939.0, 19923.0, 19935.0, 19943.0, 19958.0, 19972.0, 19977.0, 19998.0, 19974.0, 19987.0, 19982.0, 19980.0, 19987.0, 19992.0, 19988.0, 19988.0, 19999.0, 20017.0, 19979.0, 19965.0, 19951.0, 19940.0, 19968.0, 19986.0, 19961.0, 19966.0, 19963.0, 19952.0, 19947.0, 19938.0, 19939.0, 19935.0, 19962.0, 19961.0, 19939.0, 19958.0, 19965.0, 19977.0, 19966.0, 19959.0, 19959.0, 19947.0]
    },
    "slices": {}
  },
  "NumberOfVolumes": 264
}