{
  "AcquisitionMatrixPE": 104,
  "AcquisitionNumber": 1,
  "AcquisitionTime": "14:49:37.520000",
  "BandwidthPerPixelPhaseEncode": 16.578,
  "BaseResolution": 104,
  "BodyPartExamined": "BRAIN",
  "ConsistencyInfo": "N4_VE11C_LATEST_20160120",
  "ConversionSoftware": "dcm2niix",
  "ConversionSoftwareVersion": "v1.0.20190410  GCC6.3.0",
  "DerivedVendorReportedEchoSpacing": 0.000580009,
  "DeviceSerialNumber": "166018",
  "DwellTime": 2.1e-06,
  "EchoTime": 0.037,
  "EchoTrainLength": 104,
  "EffectiveEchoSpacing": 0.000580009,
  "FlipAngle": 68,
  "ImageComments": "Unaliased_MB6_PE3_LB",
  "ImageOrientationPatientDICOM": [0.997547, -0.0602919, -0.0355546, 0.0479156, 0.958503, -0.281028],
  "ImageType": [
    "ORIGINAL",
    "PRIMARY",
    "M",
    "MB",
    "ND",
    "MOSAIC"
],
  "ImagingFrequency": 123.191,
  "InPlanePhaseEncodingDirectionDICOM": "COL",
  "InstitutionAddress": "Washington_Place_6_NYC_NYC_US_10003",
  "InstitutionName": "NYU_Center_for_Brain_Imaging",
  "InstitutionalDepartmentName": "Department",
  "MRAcquisitionType": "2D",
  "MagneticFieldStrength": 3,
  "Manufacturer": "Siemens",
  "ManufacturersModelName": "Prisma",
  "Modality": "MR",
  "MultibandAccelerationFactor": 6,
  "PartialFourier": 1,
  "PatientPosition": "HFS",
  "PercentPhaseFOV": 100,
  "PhaseEncodingDirection": "j",
  "PhaseEncodingSteps": 104,
  "PhaseResolution": 1,
  "PixelBandwidth": 2290,
  "ProcedureStepDescription": "Investigators_Winawer",
  "ProtocolName": "task-sfprescaled_cmrr_mbepi_s6_2mm_66sl_PA_TR1.0",
  "PulseSequenceDetails": "%CustomerSeq%_cmrr_mbep2d_bold",
  "ReceiveCoilActiveElements": "HC1-7",
  "ReceiveCoilName": "HeadNeck_64",
  "ReconMatrixPE": 104,
  "RepetitionTime": 1,
  "SAR": 0.0599872,
  "ScanOptions": "FS",
  "ScanningSequence": "EP",
  "SequenceName": "epfid2d1_104",
  "SequenceVariant": "SK_SS",
  "SeriesDescription": "task-sfprescaled_cmrr_mbepi_s6_2mm_66sl_PA_TR1.0",
  "SeriesNumber": 22,
  "ShimSetting": [244, -12533, -8553, 292, -42, 159, -175, 26],
  "SliceThickness": 2,
  "SliceTiming": [0, 0.535, 0.0875, 0.6225, 0.1775, 0.7125, 0.2675, 0.8025, 0.355, 0.89, 0.445, 0, 0.535, 0.0875, 0.6225, 0.1775, 0.7125, 0.2675, 0.8025, 0.355, 0.89, 0.445, 0, 0.535, 0.0875, 0.6225, 0.1775, 0.7125, 0.2675, 0.8025, 0.355, 0.89, 0.445, 0, 0.535, 0.0875, 0.6225, 0.1775, 0.7125, 0.2675, 0.8025, 0.355, 0.89, 0.445, 0, 0.535, 0.0875, 0.6225, 0.1775, 0.7125, 0.2675, 0.8025, 0.355, 0.89, 0.445, 0, 0.535, 0.0875, 0.6225, 0.1775, 0.7125, 0.2675, 0.8025, 0.355, 0.89, 0.445],
  "SoftwareVersions": "syngo_MR_E11",
  "SpacingBetweenSlices": 2,
  "StationName": "AWP166018",
  "TaskName": "sfprescaled",
  "TotalReadoutTime": 0.0597409,
  "TxRefAmp": 201.638,
  "WipMemBlock": "e446e14a-dced-4007-87d9-d2781c55cea2||Sequence: R016 ve11c/master r/8780670; Nov 27 2017 15:05:12 by eja",
  "dcmmeta_affine": [
    [-1.9950947761535645, 0.09583121538162231, -0.10204588621854782, 113.34072875976562],
    [0.12058382481336594, 1.9170050621032715, -0.5572711229324341, -73.6729507446289],
    [-0.07110926508903503, 0.5620568990707397, 1.9180811643600464, -78.0055923461914],
    [0.0, 0.0, 0.0, 1.0]
],
  "dcmmeta_reorient_transform": [
    [0.0, -1.0, 0.0, 103.0],
    [1.0, 0.0, 0.0, 0.0],
    [0.0, 0.0, 1.0, 0.0],
    [0.0, 0.0, 0.0, 1.0]
],
  "dcmmeta_shape": [104, 104, 66, 264],
  "dcmmeta_slice_dim": 2,
  "dcmmeta_version": 0.6,
  "global": {
    "const": {
      "AccessionNumber": "k5onhzs7",
      "AcquisitionMatrix": [104, 0, 0, 104],
      "AngioFlag": "N",
      "BitsAllocated": 16,
      "BitsStored": 16,
      "BodyPartExamined": "BRAIN",
      "Columns": 936,
      "EchoNumbers": 1,
      "EchoTime": 37.0,
      "EchoTrainLength": 104,
      "FlipAngle": 68.0,
      "HighBit": 15,
      "ImageOrientationPatient": [0.99754736907445, -0.0602919119506, -0.0355546312874, 0.04791560694718, 0.95850253404615, -0.2810284448913],
      "ImagePositionPatient": [-993.03653895377, -871.08980635917, 243.28338726346],
      "ImageType": [
        "ORIGINAL",
        "PRIMARY",
        "M",
        "MB",
        "ND",
        "MOSAIC"
],
      "ImagedNucleus": "1H",
      "ImagingFrequency": 123.190782,
      "InPlanePhaseEncodingDirection": "COL",
      "MRAcquisitionType": "2D",
      "MagneticFieldStrength": 3.0,
      "Manufacturer": "SIEMENS",
      "ManufacturerModelName": "Prisma",
      "Modality": "MR",
      "NumberOfAverages": 1.0,
      "NumberOfPhaseEncodingSteps": 104,
      "PercentPhaseFieldOfView": 100.0,
      "PercentSampling": 100.0,
      "PerformedProcedureStepStartTime": "140037.811000",
      "PhotometricInterpretation": "MONOCHROME2",
      "PixelBandwidth": 2290.0,
      "PixelRepresentation": 0,
      "PixelSpacing": [2.0, 2.0],
      "ProtocolName": "task-sfprescaled_cmrr_mbepi_s6_2mm_66sl_PA_TR1.0",
      "RepetitionTime": 1000.0,
      "Rows": 936,
      "SAR": 0.05998716687588,
      "SamplesPerPixel": 1,
      "ScanOptions": "FS",
      "ScanningSequence": "EP",
      "SequenceName": "epfid2d1_104",
      "SequenceVariant": [
        "SK",
        "SS"
],
      "SeriesDescription": "task-sfprescaled_cmrr_mbepi_s6_2mm_66sl_PA_TR1.0",
      "SeriesNumber": 22,
      "SeriesTime": "145037.698000",
      "SliceLocation": -60.065602895364,
      "SliceThickness": 2.0,
      "SmallestImagePixelValue": 0,
      "SoftwareVersions": "syngo MR E11",
      "SpacingBetweenSlices": 1.9999999262666,
      "SpecificCharacterSet": "ISO_IR 100",
      "StudyID": "1",
      "StudyTime": "140037.749000",
      "TransmitCoilName": "Body",
      "VariableFlipAngleFlag": "N",
      "WindowCenterWidthExplanation": "Algo1",
      "dBdt": 0.0},
    "slices": {}
  },
  "time": {
    "samples": {
      "AcquisitionNumber": [1, 2, 3, 4, 5, 6, 7, 8, 9, 10, 11, 12, 13, 14, 15, 16, 17, 18, 19, 20, 21, 22, 23, 24, 25, 26, 27, 28, 29, 30, 31, 32, 33, 34, 35, 36, 37, 38, 39, 40, 41, 42, 43, 44, 45, 46, 47, 48, 49, 50, 51, 52, 53, 54, 55, 56, 57, 58, 59, 60, 61, 62, 63, 64, 65, 66, 67, 68, 69, 70, 71, 72, 73, 74, 75, 76, 77, 78, 79, 80, 81, 82, 83, 84, 85, 86, 87, 88, 89, 90, 91, 92, 93, 94, 95, 96, 97, 98, 99, 100, 101, 102, 103, 104, 105, 106, 107, 108, 109, 110, 111, 112, 113, 114, 115, 116, 117, 118, 119, 120, 121, 122, 123, 124, 125, 126, 127, 128, 129, 130, 131, 132, 133, 134, 135, 136, 137, 138, 139, 140, 141, 142, 143, 144, 145, 146, 147, 148, 149, 150, 151, 152, 153, 154, 155, 156, 157, 158, 159, 160, 161, 162, 163, 164, 165, 166, 167, 168, 169, 170, 171, 172, 173, 174, 175, 176, 177, 178, 179, 180, 181, 182, 183, 184, 185, 186, 187, 188, 189, 190, 191, 192, 193, 194, 195, 196, 197, 198, 199, 200, 201, 202, 203, 204, 205, 206, 207, 208, 209, 210, 211, 212, 213, 214, 215, 216, 217, 218, 219, 220, 221, 222, 223, 224, 225, 226, 227, 228, 229, 230, 231, 232, 233, 234, 235, 236, 237, 238, 239, 240, 241, 242, 243, 244, 245, 246, 247, 248, 249, 250, 251, 252, 253, 254, 255, 256, 257, 258, 259, 260, 261, 262, 263, 264],
      "AcquisitionTime": ["144937.520000", "144938.520000", "144939.520000", "144940.520000", "144941.520000", "144942.520000", "144943.520000", "144944.520000", "144945.520000", "144946.520000", "144947.520000", "144948.520000", "144949.520000", "144950.520000", "144951.520000", "144952.520000", "144953.520000", "144954.520000", "144955.520000", "144956.520000", "144957.520000", "144958.520000", "144959.520000", "145000.520000", "145001.520000", "145002.520000", "145003.520000", "145004.520000", "145005.520000", "145006.520000", "145007.520000", "145008.520000", "145009.520000", "145010.520000", "145011.520000", "145012.520000", "145013.520000", "145014.520000", "145015.520000", "145016.520000", "145017.520000", "145018.520000", "145019.520000", "145020.520000", "145021.520000", "145022.520000", "145023.520000", "145024.520000", "145025.520000", "145026.520000", "145027.520000", "145028.520000", "145029.520000", "145030.520000", "145031.520000", "145032.520000", "145033.520000", "145034.520000", "145035.520000", "145036.520000", "145037.520000", "145038.520000", "145039.520000", "145040.520000", "145041.520000", "145042.520000", "145043.520000", "145044.520000", "145045.520000", "145046.520000", "145047.520000", "145048.520000", "145049.520000", "145050.520000", "145051.520000", "145052.520000", "145053.520000", "145054.520000", "145055.520000", "145056.520000", "145057.520000", "145058.520000", "145059.520000", "145100.520000", "145101.520000", "145102.520000", "145103.520000", "145104.520000", "145105.520000", "145106.520000", "145107.520000", "145108.520000", "145109.520000", "145110.520000", "145111.520000", "145112.520000", "145113.520000", "145114.520000", "145115.520000", "145116.520000", "145117.520000", "145118.520000", "145119.520000", "145120.520000", "145121.520000", "145122.520000", "145123.520000", "145124.520000", "145125.520000", "145126.520000", "145127.520000", "145128.520000", "145129.520000", "145130.520000", "145131.520000", "145132.520000", "145133.520000", "145134.520000", "145135.520000", "145136.520000", "145137.520000", "145138.520000", "145139.520000", "145140.520000", "145141.520000", "145142.520000", "145143.520000", "145144.520000", "145145.520000", "145146.520000", "145147.520000", "145148.520000", "145149.520000", "145150.520000", "145151.520000", "145152.520000", "145153.520000", "145154.520000", "145155.520000", "145156.520000", "145157.520000", "145158.520000", "145159.520000", "145200.520000", "145201.520000", "145202.520000", "145203.520000", "145204.520000", "145205.520000", "145206.520000", "145207.520000", "145208.520000", "145209.520000", "145210.520000", "145211.520000", "145212.520000", "145213.520000", "145214.520000", "145215.520000", "145216.520000", "145217.520000", "145218.520000", "145219.520000", "145220.520000", "145221.520000", "145222.520000", "145223.520000", "145224.520000", "145225.520000", "145226.520000", "145227.520000", "145228.520000", "145229.520000", "145230.520000", "145231.520000", "145232.520000", "145233.520000", "145234.520000", "145235.520000", "145236.520000", "145237.520000", "145238.520000", "145239.520000", "145240.520000", "145241.520000", "145242.520000", "145243.520000", "145244.520000", "145245.520000", "145246.520000", "145247.520000", "145248.520000", "145249.520000", "145250.520000", "145251.520000", "145252.520000", "145253.520000", "145254.520000", "145255.520000", "145256.520000", "145257.520000", "145258.520000", "145259.520000", "145300.520000", "145301.520000", "145302.520000", "145303.520000", "145304.520000", "145305.520000", "145306.520000", "145307.520000", "145308.520000", "145309.520000", "145310.520000", "145311.520000", "145312.520000", "145313.520000", "145314.520000", "145315.520000", "145316.520000", "145317.520000", "145318.520000", "145319.520000", "145320.520000", "145321.520000", "145322.520000", "145323.520000", "145324.520000", "145325.520000", "145326.520000", "145327.520000", "145328.520000", "145329.520000", "145330.520000", "145331.520000", "145332.520000", "145333.520000", "145334.520000", "145335.520000", "145336.520000", "145337.520000", "145338.520000", "145339.520000", "145340.520000", "145341.520000", "145342.520000", "145343.520000", "145344.520000", "145345.520000", "145346.520000", "145347.520000", "145348.520000", "145349.520000", "145350.520000", "145351.520000", "145352.520000", "145353.520000", "145354.520000", "145355.520000", "145356.520000", "145357.520000", "145358.520000", "145359.520000", "145400.520000"],
      "ContentTime": ["145037.700000", "145037.704000", "145037.707000", "145037.710000", "145037.713000", "145037.715000", "145042.664000", "145042.667000", "145042.670000", "145042.673000", "145042.675000", "145042.684000", "145042.686000", "145047.664000", "145047.673000", "145047.676000", "145047.679000", "145047.688000", "145047.691000", "145047.694000", "145052.664000", "145052.667000", "145052.670000", "145052.673000", "145052.675000", "145052.678000", "145052.681000", "145057.663000", "145057.666000", "145057.669000", "145057.672000", "145057.674000", "145057.677000", "145057.680000", "145102.664000", "145102.667000", "145102.670000", "145102.673000", "145102.675000", "145102.678000", "145102.681000", "145107.664000", "145107.667000", "145107.669000", "145107.672000", "145107.675000", "145107.678000", "145107.681000", "145107.684000", "145112.663000", "145112.666000", "145112.669000", "145112.671000", "145112.674000", "145112.677000", "145112.687000", "145117.664000", "145117.667000", "145117.669000", "145117.672000", "145117.675000", "145117.678000", "145117.681000", "145122.664000", "145122.667000", "145122.670000", "145122.672000", "145122.675000", "145122.678000", "145127.664000", "145127.667000", "145127.669000", "145127.672000", "145127.693000", "145127.696000", "145127.699000", "145127.701000", "145132.663000", "145132.666000", "145132.669000", "145132.671000", "145132.674000", "145132.677000", "145132.680000", "145137.664000", "145137.667000", "145137.670000", "145137.672000", "145137.675000", "145137.678000", "145137.681000", "145142.664000", "145142.667000", "145142.670000", "145142.672000", "145142.675000", "145142.678000", "145142.681000", "145147.663000", "145147.666000", "145147.669000", "145147.672000", "145147.674000", "145147.677000", "145147.680000", "145152.664000", "145152.667000", "145152.670000", "145152.673000", "145152.675000", "145152.678000", "145152.681000", "145157.664000", "145157.667000", "145157.670000", "145157.672000", "145157.675000", "145157.678000", "145157.681000", "145202.664000", "145202.667000", "145202.670000", "145202.673000", "145202.675000", "145202.678000", "145202.681000", "145207.663000", "145207.666000", "145207.669000", "145207.672000", "145207.674000", "145207.677000", "145207.680000", "145212.664000", "145212.667000", "145212.670000", "145212.673000", "145212.676000", "145212.678000", "145212.681000", "145217.664000", "145217.667000", "145217.670000", "145217.673000", "145217.675000", "145217.678000", "145217.681000", "145222.663000", "145222.666000", "145222.669000", "145222.672000", "145222.675000", "145222.677000", "145222.680000", "145227.664000", "145227.667000", "145227.670000", "145227.673000", "145227.676000", "145227.678000", "145227.681000", "145232.664000", "145232.667000", "145232.670000", "145232.673000", "145232.675000", "145232.678000", "145232.681000", "145237.664000", "145237.667000", "145237.669000", "145237.672000", "145237.675000", "145237.678000", "145237.681000", "145237.684000", "145242.663000", "145242.666000", "145242.669000", "145242.671000", "145242.674000", "145242.677000", "145242.680000", "145247.664000", "145247.667000", "145247.670000", "145247.673000", "145247.675000", "145247.678000", "145252.664000", "145252.667000", "145252.670000", "145252.673000", "145252.675000", "145257.663000", "145257.666000", "145257.669000", "145257.672000", "145257.675000", "145302.664000", "145302.667000", "145302.670000", "145302.673000", "145302.675000", "145307.664000", "145307.667000", "145307.670000", "145307.673000", "145307.675000", "145312.664000", "145312.667000", "145312.670000", "145312.673000", "145312.676000", "145317.663000", "145317.666000", "145317.669000", "145317.672000", "145317.675000", "145322.664000", "145322.667000", "145322.670000", "145322.673000", "145322.676000", "145327.664000", "145327.667000", "145327.670000", "145327.673000", "145327.675000", "145332.663000", "145332.666000", "145332.669000", "145332.672000", "145332.674000", "145337.664000", "145337.667000", "145337.670000", "145337.673000", "145337.675000", "145342.664000", "145342.667000", "145342.670000", "145342.673000", "145342.676000", "145347.664000", "145347.667000", "145347.670000", "145347.673000", "145347.675000", "145352.663000", "145352.666000", "145352.669000", "145352.672000", "145352.675000", "145357.664000", "145357.667000", "145357.670000", "145357.673000", "145357.675000", "145402.041000", "145402.044000", "145402.048000", "145402.051000", "145402.054000"],
      "InstanceCreationTime": ["145037.700000", "145037.704000", "145037.707000", "145037.710000", "145037.713000", "145037.715000", "145042.664000", "145042.667000", "145042.670000", "145042.673000", "145042.675000", "145042.684000", "145042.686000", "145047.664000", "145047.673000", "145047.676000", "145047.679000", "145047.688000", "145047.691000", "145047.694000", "145052.664000", "145052.667000", "145052.670000", "145052.673000", "145052.675000", "145052.678000", "145052.681000", "145057.663000", "145057.666000", "145057.669000", "145057.672000", "145057.674000", "145057.677000", "145057.680000", "145102.664000", "145102.667000", "145102.670000", "145102.673000", "145102.675000", "145102.678000", "145102.681000", "145107.664000", "145107.667000", "145107.669000", "145107.672000", "145107.675000", "145107.678000", "145107.681000", "145107.684000", "145112.663000", "145112.666000", "145112.669000", "145112.671000", "145112.674000", "145112.677000", "145112.687000", "145117.664000", "145117.667000", "145117.669000", "145117.672000", "145117.675000", "145117.678000", "145117.681000", "145122.664000", "145122.667000", "145122.670000", "145122.672000", "145122.675000", "145122.678000", "145127.664000", "145127.667000", "145127.669000", "145127.672000", "145127.693000", "145127.696000", "145127.699000", "145127.701000", "145132.663000", "145132.666000", "145132.669000", "145132.671000", "145132.674000", "145132.677000", "145132.680000", "145137.664000", "145137.667000", "145137.670000", "145137.672000", "145137.675000", "145137.678000", "145137.681000", "145142.664000", "145142.667000", "145142.670000", "145142.672000", "145142.675000", "145142.678000", "145142.681000", "145147.663000", "145147.666000", "145147.669000", "145147.672000", "145147.674000", "145147.677000", "145147.680000", "145152.664000", "145152.667000", "145152.670000", "145152.673000", "145152.675000", "145152.678000", "145152.681000", "145157.664000", "145157.667000", "145157.670000", "145157.672000", "145157.675000", "145157.678000", "145157.681000", "145202.664000", "145202.667000", "145202.670000", "145202.673000", "145202.675000", "145202.678000", "145202.681000", "145207.663000", "145207.666000", "145207.669000", "145207.672000", "145207.674000", "145207.677000", "145207.680000", "145212.664000", "145212.667000", "145212.670000", "145212.673000", "145212.676000", "145212.678000", "145212.681000", "145217.664000", "145217.667000", "145217.670000", "145217.673000", "145217.675000", "145217.678000", "145217.681000", "145222.663000", "145222.666000", "145222.669000", "145222.672000", "145222.675000", "145222.677000", "145222.680000", "145227.664000", "145227.667000", "145227.670000", "145227.673000", "145227.676000", "145227.678000", "145227.681000", "145232.664000", "145232.667000", "145232.670000", "145232.673000", "145232.675000", "145232.678000", "145232.681000", "145237.664000", "145237.667000", "145237.669000", "145237.672000", "145237.675000", "145237.678000", "145237.681000", "145237.684000", "145242.663000", "145242.666000", "145242.669000", "145242.671000", "145242.674000", "145242.677000", "145242.680000", "145247.664000", "145247.667000", "145247.670000", "145247.673000", "145247.675000", "145247.678000", "145252.664000", "145252.667000", "145252.670000", "145252.673000", "145252.675000", "145257.663000", "145257.666000", "145257.669000", "145257.672000", "145257.675000", "145302.664000", "145302.667000", "145302.670000", "145302.673000", "145302.675000", "145307.664000", "145307.667000", "145307.670000", "145307.673000", "145307.675000", "145312.664000", "145312.667000", "145312.670000", "145312.673000", "145312.676000", "145317.663000", "145317.666000", "145317.669000", "145317.672000", "145317.675000", "145322.664000", "145322.667000", "145322.670000", "145322.673000", "145322.676000", "145327.664000", "145327.667000", "145327.670000", "145327.673000", "145327.675000", "145332.663000", "145332.666000", "145332.669000", "145332.672000", "145332.674000", "145337.664000", "145337.667000", "145337.670000", "145337.673000", "145337.675000", "145342.664000", "145342.667000", "145342.670000", "145342.673000", "145342.676000", "145347.664000", "145347.667000", "145347.670000", "145347.673000", "145347.675000", "145352.663000", "145352.666000", "145352.669000", "145352.672000", "145352.675000", "145357.664000", "145357.667000", "145357.670000", "145357.673000", "145357.675000", "145402.041000", "145402.044000", "145402.048000", "145402.051000", "145402.054000"],
      "InstanceNumber": [1, 2, 3, 4, 5, 6, 7, 8, 9, 10, 11, 12, 13, 14, 15, 16, 17, 18, 19, 20, 21, 22, 23, 24, 25, 26, 27, 28, 29, 30, 31, 32, 33, 34, 35, 36, 37, 38, 39, 40, 41, 42, 43, 44, 45, 46, 47, 48, 49, 50, 51, 52, 53, 54, 55, 56, 57, 58, 59, 60, 61, 62, 63, 64, 65, 66, 67, 68, 69, 70, 71, 72, 73, 74, 75, 76, 77, 78, 79, 80, 81, 82, 83, 84, 85, 86, 87, 88, 89, 90, 91, 92, 93, 94, 95, 96, 97, 98, 99, 100, 101, 102, 103, 104, 105, 106, 107, 108, 109, 110, 111, 112, 113, 114, 115, 116, 117, 118, 119, 120, 121, 122, 123, 124, 125, 126, 127, 128, 129, 130, 131, 132, 133, 134, 135, 136, 137, 138, 139, 140, 141, 142, 143, 144, 145, 146, 147, 148, 149, 150, 151, 152, 153, 154, 155, 156, 157, 158, 159, 160, 161, 162, 163, 164, 165, 166, 167, 168, 169, 170, 171, 172, 173, 174, 175, 176, 177, 178, 179, 180, 181, 182, 183, 184, 185, 186, 187, 188, 189, 190, 191, 192, 193, 194, 195, 196, 197, 198, 199, 200, 201, 202, 203, 204, 205, 206, 207, 208, 209, 210, 211, 212, 213, 214, 215, 216, 217, 218, 219, 220, 221, 222, 223, 224, 225, 226, 227, 228, 229, 230, 231, 232, 233, 234, 235, 236, 237, 238, 239, 240, 241, 242, 243, 244, 245, 246, 247, 248, 249, 250, 251, 252, 253, 254, 255, 256, 257, 258, 259, 260, 261, 262, 263, 264],
      "LargestImagePixelValue": [37962, 36457, 35764, 34950, 35387, 35554, 35389, 34784, 35394, 34872, 34605, 35293, 34440, 35046, 35417, 35222, 34739, 34928, 35557, 35596, 35226, 35441, 35374, 34571, 35795, 35442, 34745, 35388, 35010, 34686, 35540, 34942, 34274, 35347, 35295, 34714, 35485, 35454, 35393, 35033, 36121, 36004, 35781, 34661, 37059, 35350, 36331, 36027, 35071, 36020, 36337, 35763, 35945, 35635, 35851, 35461, 35526, 35705, 35710, 35118, 36452, 35572, 35162, 35744, 35669, 35300, 35598, 35196, 36293, 36200, 35302, 35714, 36496, 36314, 36060, 36335, 35871, 36020, 35170, 36020, 35240, 35302, 35625, 35876, 35145, 35299, 35140, 34927, 35305, 35330, 35215, 35108, 35667, 34866, 35306, 35487, 35118, 35077, 34762, 35131, 35886, 35220, 34900, 35852, 35287, 35490, 36641, 35930, 34768, 36646, 36152, 35263, 35945, 37866, 35641, 35922, 35517, 36295, 35774, 35617, 36032, 35128, 35967, 35430, 35385, 35606, 35577, 35985, 35195, 35165, 35422, 35673, 35505, 34857, 36223, 35996, 37723, 35200, 35536, 35602, 35554, 35977, 34948, 36595, 36133, 36256, 35340, 35297, 35599, 35094, 35630, 35717, 35667, 34739, 36271, 35654, 35363, 36139, 36606, 35869, 36169, 35660, 35811, 35545, 36541, 35979, 36751, 36376, 35348, 36179, 36330, 36293, 36153, 35369, 35603, 35308, 36767, 35365, 36136, 35955, 35517, 35925, 35804, 37344, 35983, 35935, 36070, 35760, 36009, 36310, 35386, 35549, 35865, 36574, 35664, 35316, 35842, 35822, 35829, 35871, 35876, 35011, 35945, 36232, 35557, 35997, 35853, 35725, 35962, 36272, 35530, 36224, 36151, 35482, 35255, 36231, 35564, 38533, 36151, 36265, 35999, 36123, 36009, 35649, 35418, 35899, 35751, 35566, 35670, 35782, 35704, 35157, 36345, 36348, 35614, 35803, 36272, 36044, 35554, 36581, 36118, 35776, 35824, 36263, 35493, 36211, 36634, 36176, 35370, 36634, 36256, 35765, 36360, 36316, 36098, 35884, 36199, 36054, 36315, 36341, 36375, 35479, 36536, 36089],
      "WindowCenter": [9541.0, 9488.0, 9471.0, 9457.0, 9467.0, 9454.0, 9453.0, 9455.0, 9452.0, 9446.0, 9445.0, 9450.0, 9436.0, 9450.0, 9465.0, 9469.0, 9468.0, 9471.0, 9467.0, 9458.0, 9452.0, 9458.0, 9465.0, 9465.0, 9477.0, 9470.0, 9450.0, 9452.0, 9439.0, 9438.0, 9450.0, 9454.0, 9448.0, 9460.0, 9454.0, 9440.0, 9452.0, 9450.0, 9444.0, 9445.0, 9456.0, 9448.0, 9450.0, 9431.0, 9453.0, 9445.0, 9455.0, 9458.0, 9454.0, 9473.0, 9466.0, 9451.0, 9449.0, 9441.0, 9438.0, 9433.0, 9441.0, 9448.0, 9456.0, 9453.0, 9473.0, 9470.0, 9469.0, 9474.0, 9462.0, 9451.0, 9450.0, 9451.0, 9455.0, 9442.0, 9434.0, 9442.0, 9447.0, 9440.0, 9453.0, 9446.0, 9431.0, 9444.0, 9441.0, 9461.0, 9453.0, 9452.0, 9466.0, 9466.0, 9456.0, 9457.0, 9458.0, 9451.0, 9457.0, 9452.0, 9458.0, 9467.0, 9469.0, 9470.0, 9470.0, 9468.0, 9453.0, 9450.0, 9451.0, 9458.0, 9472.0, 9470.0, 9465.0, 9467.0, 9455.0, 9455.0, 9454.0, 9441.0, 9435.0, 9454.0, 9456.0, 9446.0, 9461.0, 9470.0, 9442.0, 9449.0, 9450.0, 9456.0, 9459.0, 9460.0, 9465.0, 9452.0, 9457.0, 9453.0, 9443.0, 9443.0, 9450.0, 9441.0, 9442.0, 9448.0, 9459.0, 9465.0, 9468.0, 9464.0, 9472.0, 9460.0, 9480.0, 9442.0, 9439.0, 9449.0, 9450.0, 9443.0, 9437.0, 9455.0, 9448.0, 9440.0, 9433.0, 9423.0, 9423.0, 9424.0, 9430.0, 9430.0, 9438.0, 9428.0, 9455.0, 9461.0, 9459.0, 9455.0, 9445.0, 9438.0, 9433.0, 9424.0, 9437.0, 9439.0, 9446.0, 9448.0, 9453.0, 9445.0, 9418.0, 9429.0, 9426.0, 9419.0, 9436.0, 9440.0, 9451.0, 9451.0, 9462.0, 9451.0, 9447.0, 9441.0, 9448.0, 9451.0, 9457.0, 9469.0, 9455.0, 9447.0, 9446.0, 9447.0, 9446.0, 9448.0, 9448.0, 9449.0, 9447.0, 9444.0, 9432.0, 9422.0, 9428.0, 9435.0, 9445.0, 9454.0, 9459.0, 9447.0, 9449.0, 9449.0, 9449.0, 9443.0, 9439.0, 9439.0, 9444.0, 9454.0, 9464.0, 9465.0, 9455.0, 9443.0, 9443.0, 9461.0, 9459.0, 9471.0, 9447.0, 9437.0, 9424.0, 9436.0, 9429.0, 9431.0, 9432.0, 9439.0, 9439.0, 9446.0, 9441.0, 9448.0, 9448.0, 9450.0, 9452.0, 9444.0, 9431.0, 9430.0, 9443.0, 9451.0, 9458.0, 9471.0, 9474.0, 9469.0, 9464.0, 9456.0, 9447.0, 9446.0, 9451.0, 9446.0, 9448.0, 9447.0, 9445.0, 9437.0, 9435.0, 9433.0, 9434.0, 9437.0, 9442.0, 9450.0, 9450.0, 9442.0, 9443.0, 9438.0, 9450.0, 9443.0],
      "WindowWidth": [20302.0, 20174.0, 20128.0, 20099.0, 20111.0, 20086.0, 20083.0, 20088.0, 20078.0, 20068.0, 20063.0, 20070.0, 20048.0, 20076.0, 20107.0, 20118.0, 20115.0, 20124.0, 20110.0, 20091.0, 20085.0, 20097.0, 20114.0, 20121.0, 20143.0, 20127.0, 20088.0, 20087.0, 20062.0, 20059.0, 20081.0, 20093.0, 20084.0, 20105.0, 20091.0, 20064.0, 20084.0, 20078.0, 20065.0, 20071.0, 20090.0, 20072.0, 20078.0, 20045.0, 20079.0, 20072.0, 20090.0, 20099.0, 20094.0, 20130.0, 20113.0, 20082.0, 20075.0, 20055.0, 20046.0, 20040.0, 20056.0, 20071.0, 20087.0, 20087.0, 20126.0, 20127.0, 20121.0, 20127.0, 20103.0, 20075.0, 20074.0, 20079.0, 20086.0, 20061.0, 20047.0, 20063.0, 20071.0, 20056.0, 20083.0, 20065.0, 20030.0, 20053.0, 20055.0, 20096.0, 20087.0, 20088.0, 20114.0, 20112.0, 20087.0, 20087.0, 20090.0, 20081.0, 20090.0, 20086.0, 20097.0, 20120.0, 20126.0, 20129.0, 20129.0, 20122.0, 20086.0, 20073.0, 20078.0, 20096.0, 20126.0, 20130.0, 20123.0, 20120.0, 20096.0, 20098.0, 20085.0, 20058.0, 20051.0, 20088.0, 20095.0, 20080.0, 20115.0, 20123.0, 20068.0, 20079.0, 20085.0, 20096.0, 20106.0, 20111.0, 20118.0, 20094.0, 20099.0, 20091.0, 20066.0, 20067.0, 20079.0, 20061.0, 20064.0, 20078.0, 20104.0, 20115.0, 20127.0, 20122.0, 20129.0, 20109.0, 20134.0, 20060.0, 20053.0, 20079.0, 20084.0, 20071.0, 20060.0, 20094.0, 20078.0, 20060.0, 20046.0, 20020.0, 20019.0, 20022.0, 20032.0, 20033.0, 20052.0, 20038.0, 20093.0, 20113.0, 20107.0, 20091.0, 20064.0, 20050.0, 20043.0, 20025.0, 20051.0, 20056.0, 20071.0, 20078.0, 20084.0, 20064.0, 20012.0, 20030.0, 20020.0, 20010.0, 20047.0, 20062.0, 20089.0, 20091.0, 20108.0, 20087.0, 20074.0, 20067.0, 20080.0, 20090.0, 20103.0, 20121.0, 20088.0, 20068.0, 20066.0, 20074.0, 20073.0, 20078.0, 20081.0, 20083.0, 20074.0, 20065.0, 20041.0, 20016.0, 20026.0, 20041.0, 20068.0, 20089.0, 20106.0, 20085.0, 20083.0, 20082.0, 20081.0, 20071.0, 20058.0, 20055.0, 20062.0, 20087.0, 20112.0, 20116.0, 20093.0, 20070.0, 20072.0, 20107.0, 20108.0, 20121.0, 20073.0, 20051.0, 20027.0, 20048.0, 20034.0, 20039.0, 20043.0, 20056.0, 20056.0, 20072.0, 20065.0, 20078.0, 20079.0, 20085.0, 20080.0, 20058.0, 20033.0, 20029.0, 20055.0, 20074.0, 20101.0, 20125.0, 20137.0, 20127.0, 20111.0, 20091.0, 20070.0, 20067.0, 20076.0, 20067.0, 20077.0, 20073.0, 20066.0, 20050.0, 20040.0, 20033.0, 20034.0, 20043.0, 20052.0, 20072.0, 20071.0, 20053.0, 20056.0, 20053.0, 20071.0, 20059.0]
    },
    "slices": {}
  },
  "NumberOfVolumes": 264
}