{
  "AcquisitionMatrixPE": 104,
  "AcquisitionNumber": 1,
  "AcquisitionTime": "14:29:49.472500",
  "BandwidthPerPixelPhaseEncode": 16.578,
  "BaseResolution": 104,
  "BodyPartExamined": "BRAIN",
  "ConsistencyInfo": "N4_VE11C_LATEST_20160120",
  "ConversionSoftware": "dcm2niix",
  "ConversionSoftwareVersion": "v1.0.20190410  GCC6.3.0",
  "DerivedVendorReportedEchoSpacing": 0.000580009,
  "DeviceSerialNumber": "166018",
  "DwellTime": 2.1e-06,
  "EchoTime": 0.037,
  "EchoTrainLength": 104,
  "EffectiveEchoSpacing": 0.000580009,
  "FlipAngle": 68,
  "ImageComments": "Unaliased_MB6_PE3_LB",
  "ImageOrientationPatientDICOM": [0.997547, -0.0602919, -0.0355546, 0.0479156, 0.958503, -0.281028],
  "ImageType": [
    "ORIGINAL",
    "PRIMARY",
    "M",
    "MB",
    "ND",
    "MOSAIC"
],
  "ImagingFrequency": 123.191,
  "InPlanePhaseEncodingDirectionDICOM": "COL",
  "InstitutionAddress": "Washington_Place_6_NYC_NYC_US_10003",
  "InstitutionName": "NYU_Center_for_Brain_Imaging",
  "InstitutionalDepartmentName": "Department",
  "MRAcquisitionType": "2D",
  "MagneticFieldStrength": 3,
  "Manufacturer": "Siemens",
  "ManufacturersModelName": "Prisma",
  "Modality": "MR",
  "MultibandAccelerationFactor": 6,
  "PartialFourier": 1,
  "PatientPosition": "HFS",
  "PercentPhaseFOV": 100,
  "PhaseEncodingDirection": "j",
  "PhaseEncodingSteps": 104,
  "PhaseResolution": 1,
  "PixelBandwidth": 2290,
  "ProcedureStepDescription": "Investigators_Winawer",
  "ProtocolName": "task-sfprescaled_cmrr_mbepi_s6_2mm_66sl_PA_TR1.0",
  "PulseSequenceDetails": "%CustomerSeq%_cmrr_mbep2d_bold",
  "ReceiveCoilActiveElements": "HC1-7",
  "ReceiveCoilName": "HeadNeck_64",
  "ReconMatrixPE": 104,
  "RepetitionTime": 1,
  "SAR": 0.0599872,
  "ScanOptions": "FS",
  "ScanningSequence": "EP",
  "SequenceName": "epfid2d1_104",
  "SequenceVariant": "SK_SS",
  "SeriesDescription": "task-sfprescaled_cmrr_mbepi_s6_2mm_66sl_PA_TR1.0",
  "SeriesNumber": 14,
  "ShimSetting": [244, -12533, -8553, 292, -42, 159, -175, 26],
  "SliceThickness": 2,
  "SliceTiming": [0, 0.535, 0.09, 0.6225, 0.1775, 0.7125, 0.2675, 0.8025, 0.3575, 0.89, 0.445, 0, 0.535, 0.09, 0.6225, 0.1775, 0.7125, 0.2675, 0.8025, 0.3575, 0.89, 0.445, 0, 0.535, 0.09, 0.6225, 0.1775, 0.7125, 0.2675, 0.8025, 0.3575, 0.89, 0.445, 0, 0.535, 0.09, 0.6225, 0.1775, 0.7125, 0.2675, 0.8025, 0.3575, 0.89, 0.445, 0, 0.535, 0.09, 0.6225, 0.1775, 0.7125, 0.2675, 0.8025, 0.3575, 0.89, 0.445, 0, 0.535, 0.09, 0.6225, 0.1775, 0.7125, 0.2675, 0.8025, 0.3575, 0.89, 0.445],
  "SoftwareVersions": "syngo_MR_E11",
  "SpacingBetweenSlices": 2,
  "StationName": "AWP166018",
  "TaskName": "sfprescaled",
  "TotalReadoutTime": 0.0597409,
  "TxRefAmp": 201.638,
  "WipMemBlock": "e446e14a-dced-4007-87d9-d2781c55cea2||Sequence: R016 ve11c/master r/8780670; Nov 27 2017 15:05:12 by eja",
  "dcmmeta_affine": [
    [-1.9950947761535645, 0.09583121538162231, -0.10204588621854782, 113.34072875976562],
    [0.12058382481336594, 1.9170050621032715, -0.5572711229324341, -73.6729507446289],
    [-0.07110926508903503, 0.5620568990707397, 1.9180811643600464, -78.0055923461914],
    [0.0, 0.0, 0.0, 1.0]
],
  "dcmmeta_reorient_transform": [
    [0.0, -1.0, 0.0, 103.0],
    [1.0, 0.0, 0.0, 0.0],
    [0.0, 0.0, 1.0, 0.0],
    [0.0, 0.0, 0.0, 1.0]
],
  "dcmmeta_shape": [104, 104, 66, 264],
  "dcmmeta_slice_dim": 2,
  "dcmmeta_version": 0.6,
  "global": {
    "const": {
      "AccessionNumber": "k5onhzs7",
      "AcquisitionMatrix": [104, 0, 0, 104],
      "AngioFlag": "N",
      "BitsAllocated": 16,
      "BitsStored": 16,
      "BodyPartExamined": "BRAIN",
      "Columns": 936,
      "EchoNumbers": 1,
      "EchoTime": 37.0,
      "EchoTrainLength": 104,
      "FlipAngle": 68.0,
      "HighBit": 15,
      "ImageOrientationPatient": [0.99754736907445, -0.0602919119506, -0.0355546312874, 0.04791560694718, 0.95850253404615, -0.2810284448913],
      "ImagePositionPatient": [-993.03653895377, -871.08980635917, 243.28338726346],
      "ImageType": [
        "ORIGINAL",
        "PRIMARY",
        "M",
        "MB",
        "ND",
        "MOSAIC"
],
      "ImagedNucleus": "1H",
      "ImagingFrequency": 123.190782,
      "InPlanePhaseEncodingDirection": "COL",
      "MRAcquisitionType": "2D",
      "MagneticFieldStrength": 3.0,
      "Manufacturer": "SIEMENS",
      "ManufacturerModelName": "Prisma",
      "Modality": "MR",
      "NumberOfAverages": 1.0,
      "NumberOfPhaseEncodingSteps": 104,
      "PercentPhaseFieldOfView": 100.0,
      "PercentSampling": 100.0,
      "PerformedProcedureStepStartTime": "140037.811000",
      "PhotometricInterpretation": "MONOCHROME2",
      "PixelBandwidth": 2290.0,
      "PixelRepresentation": 0,
      "PixelSpacing": [2.0, 2.0],
      "ProtocolName": "task-sfprescaled_cmrr_mbepi_s6_2mm_66sl_PA_TR1.0",
      "RepetitionTime": 1000.0,
      "Rows": 936,
      "SAR": 0.05998716687588,
      "SamplesPerPixel": 1,
      "ScanOptions": "FS",
      "ScanningSequence": "EP",
      "SequenceName": "epfid2d1_104",
      "SequenceVariant": [
        "SK",
        "SS"
],
      "SeriesDescription": "task-sfprescaled_cmrr_mbepi_s6_2mm_66sl_PA_TR1.0",
      "SeriesNumber": 14,
      "SeriesTime": "143049.445000",
      "SliceLocation": -60.065602895364,
      "SliceThickness": 2.0,
      "SmallestImagePixelValue": 0,
      "SoftwareVersions": "syngo MR E11",
      "SpacingBetweenSlices": 1.9999999262666,
      "SpecificCharacterSet": "ISO_IR 100",
      "StudyID": "1",
      "StudyTime": "140037.749000",
      "TransmitCoilName": "Body",
      "VariableFlipAngleFlag": "N",
      "WindowCenterWidthExplanation": "Algo1",
      "dBdt": 0.0},
    "slices": {}
  },
  "time": {
    "samples": {
      "AcquisitionNumber": [1, 2, 3, 4, 5, 6, 7, 8, 9, 10, 11, 12, 13, 14, 15, 16, 17, 18, 19, 20, 21, 22, 23, 24, 25, 26, 27, 28, 29, 30, 31, 32, 33, 34, 35, 36, 37, 38, 39, 40, 41, 42, 43, 44, 45, 46, 47, 48, 49, 50, 51, 52, 53, 54, 55, 56, 57, 58, 59, 60, 61, 62, 63, 64, 65, 66, 67, 68, 69, 70, 71, 72, 73, 74, 75, 76, 77, 78, 79, 80, 81, 82, 83, 84, 85, 86, 87, 88, 89, 90, 91, 92, 93, 94, 95, 96, 97, 98, 99, 100, 101, 102, 103, 104, 105, 106, 107, 108, 109, 110, 111, 112, 113, 114, 115, 116, 117, 118, 119, 120, 121, 122, 123, 124, 125, 126, 127, 128, 129, 130, 131, 132, 133, 134, 135, 136, 137, 138, 139, 140, 141, 142, 143, 144, 145, 146, 147, 148, 149, 150, 151, 152, 153, 154, 155, 156, 157, 158, 159, 160, 161, 162, 163, 164, 165, 166, 167, 168, 169, 170, 171, 172, 173, 174, 175, 176, 177, 178, 179, 180, 181, 182, 183, 184, 185, 186, 187, 188, 189, 190, 191, 192, 193, 194, 195, 196, 197, 198, 199, 200, 201, 202, 203, 204, 205, 206, 207, 208, 209, 210, 211, 212, 213, 214, 215, 216, 217, 218, 219, 220, 221, 222, 223, 224, 225, 226, 227, 228, 229, 230, 231, 232, 233, 234, 235, 236, 237, 238, 239, 240, 241, 242, 243, 244, 245, 246, 247, 248, 249, 250, 251, 252, 253, 254, 255, 256, 257, 258, 259, 260, 261, 262, 263, 264],
      "AcquisitionTime": ["142949.472500", "142950.472500", "142951.472500", "142952.472500", "142953.472500", "142954.472500", "142955.472500", "142956.472500", "142957.472500", "142958.472500", "142959.472500", "143000.472500", "143001.472500", "143002.472500", "143003.472500", "143004.472500", "143005.472500", "143006.472500", "143007.472500", "143008.472500", "143009.472500", "143010.472500", "143011.472500", "143012.472500", "143013.472500", "143014.472500", "143015.472500", "143016.472500", "143017.472500", "143018.472500", "143019.472500", "143020.472500", "143021.472500", "143022.472500", "143023.472500", "143024.472500", "143025.472500", "143026.472500", "143027.472500", "143028.472500", "143029.472500", "143030.472500", "143031.472500", "143032.472500", "143033.472500", "143034.472500", "143035.472500", "143036.472500", "143037.472500", "143038.472500", "143039.472500", "143040.472500", "143041.472500", "143042.472500", "143043.472500", "143044.472500", "143045.472500", "143046.472500", "143047.472500", "143048.472500", "143049.472500", "143050.472500", "143051.472500", "143052.472500", "143053.472500", "143054.472500", "143055.472500", "143056.472500", "143057.472500", "143058.472500", "143059.472500", "143100.472500", "143101.472500", "143102.472500", "143103.472500", "143104.472500", "143105.472500", "143106.472500", "143107.472500", "143108.472500", "143109.472500", "143110.472500", "143111.472500", "143112.472500", "143113.472500", "143114.472500", "143115.472500", "143116.472500", "143117.472500", "143118.472500", "143119.472500", "143120.472500", "143121.472500", "143122.472500", "143123.472500", "143124.472500", "143125.472500", "143126.472500", "143127.472500", "143128.472500", "143129.472500", "143130.472500", "143131.472500", "143132.472500", "143133.472500", "143134.472500", "143135.472500", "143136.472500", "143137.472500", "143138.472500", "143139.472500", "143140.472500", "143141.472500", "143142.472500", "143143.472500", "143144.472500", "143145.472500", "143146.472500", "143147.472500", "143148.472500", "143149.472500", "143150.472500", "143151.472500", "143152.472500", "143153.472500", "143154.472500", "143155.472500", "143156.472500", "143157.472500", "143158.472500", "143159.472500", "143200.472500", "143201.472500", "143202.472500", "143203.472500", "143204.472500", "143205.472500", "143206.472500", "143207.472500", "143208.472500", "143209.472500", "143210.472500", "143211.472500", "143212.472500", "143213.472500", "143214.472500", "143215.472500", "143216.472500", "143217.472500", "143218.472500", "143219.472500", "143220.472500", "143221.472500", "143222.472500", "143223.472500", "143224.472500", "143225.472500", "143226.472500", "143227.472500", "143228.472500", "143229.472500", "143230.472500", "143231.472500", "143232.472500", "143233.472500", "143234.472500", "143235.472500", "143236.472500", "143237.472500", "143238.472500", "143239.472500", "143240.472500", "143241.472500", "143242.472500", "143243.472500", "143244.472500", "143245.472500", "143246.472500", "143247.472500", "143248.472500", "143249.472500", "143250.472500", "143251.472500", "143252.472500", "143253.472500", "143254.472500", "143255.472500", "143256.472500", "143257.472500", "143258.472500", "143259.472500", "143300.472500", "143301.472500", "143302.472500", "143303.472500", "143304.472500", "143305.472500", "143306.472500", "143307.472500", "143308.472500", "143309.472500", "143310.472500", "143311.472500", "143312.472500", "143313.472500", "143314.472500", "143315.472500", "143316.472500", "143317.472500", "143318.472500", "143319.472500", "143320.472500", "143321.472500", "143322.472500", "143323.472500", "143324.472500", "143325.472500", "143326.472500", "143327.472500", "143328.472500", "143329.472500", "143330.472500", "143331.472500", "143332.472500", "143333.472500", "143334.472500", "143335.472500", "143336.472500", "143337.472500", "143338.472500", "143339.472500", "143340.472500", "143341.472500", "143342.472500", "143343.472500", "143344.472500", "143345.472500", "143346.472500", "143347.472500", "143348.472500", "143349.472500", "143350.472500", "143351.472500", "143352.472500", "143353.472500", "143354.472500", "143355.472500", "143356.472500", "143357.472500", "143358.472500", "143359.472500", "143400.472500", "143401.472500", "143402.472500", "143403.472500", "143404.472500", "143405.472500", "143406.472500", "143407.472500", "143408.472500", "143409.472500", "143410.472500", "143411.472500", "143412.472500"],
      "ContentTime": ["143049.447000", "143049.458000", "143049.461000", "143049.464000", "143049.466000", "143049.469000", "143049.472000", "143054.447000", "143054.450000", "143054.453000", "143054.456000", "143054.470000", "143054.474000", "143054.478000", "143059.447000", "143059.450000", "143059.453000", "143059.455000", "143059.461000", "143059.464000", "143059.466000", "143059.469000", "143104.447000", "143104.450000", "143104.453000", "143104.455000", "143104.458000", "143104.461000", "143104.464000", "143109.446000", "143109.449000", "143109.452000", "143109.454000", "143109.457000", "143109.460000", "143109.463000", "143114.447000", "143114.450000", "143114.453000", "143114.455000", "143114.458000", "143114.461000", "143114.464000", "143119.447000", "143119.450000", "143119.453000", "143119.455000", "143119.458000", "143119.461000", "143119.464000", "143124.446000", "143124.449000", "143124.452000", "143124.455000", "143124.457000", "143124.460000", "143124.463000", "143129.447000", "143129.450000", "143129.453000", "143129.456000", "143129.458000", "143129.461000", "143129.464000", "143134.447000", "143134.450000", "143134.453000", "143134.456000", "143134.458000", "143134.461000", "143134.464000", "143139.447000", "143139.450000", "143139.453000", "143139.456000", "143139.458000", "143139.461000", "143139.464000", "143144.446000", "143144.449000", "143144.452000", "143144.454000", "143144.457000", "143144.460000", "143144.463000", "143149.448000", "143149.452000", "143149.461000", "143149.464000", "143149.467000", "143149.470000", "143149.473000", "143154.447000", "143154.450000", "143154.453000", "143154.455000", "143154.458000", "143154.461000", "143154.464000", "143159.446000", "143159.449000", "143159.452000", "143159.454000", "143159.457000", "143159.460000", "143159.463000", "143159.466000", "143204.447000", "143204.450000", "143204.453000", "143204.456000", "143204.458000", "143204.461000", "143204.464000", "143209.447000", "143209.450000", "143209.453000", "143209.456000", "143209.458000", "143209.461000", "143209.464000", "143214.447000", "143214.450000", "143214.453000", "143214.455000", "143214.458000", "143214.461000", "143214.464000", "143219.446000", "143219.449000", "143219.452000", "143219.454000", "143219.457000", "143219.460000", "143219.463000", "143224.447000", "143224.450000", "143224.453000", "143224.455000", "143224.458000", "143224.461000", "143224.464000", "143229.447000", "143229.450000", "143229.453000", "143229.455000", "143229.458000", "143229.461000", "143229.464000", "143234.446000", "143234.449000", "143234.452000", "143234.455000", "143234.457000", "143234.460000", "143234.463000", "143239.447000", "143239.450000", "143239.453000", "143239.455000", "143239.458000", "143239.461000", "143239.464000", "143244.447000", "143244.450000", "143244.453000", "143244.455000", "143244.458000", "143244.461000", "143244.464000", "143249.447000", "143249.450000", "143249.453000", "143249.456000", "143249.459000", "143249.461000", "143249.464000", "143254.446000", "143254.449000", "143254.452000", "143254.455000", "143254.457000", "143254.460000", "143254.463000", "143259.447000", "143259.450000", "143259.453000", "143259.456000", "143259.458000", "143304.447000", "143304.450000", "143304.453000", "143304.456000", "143304.458000", "143309.446000", "143309.449000", "143309.452000", "143309.455000", "143309.458000", "143314.447000", "143314.450000", "143314.453000", "143314.456000", "143314.459000", "143319.447000", "143319.450000", "143319.453000", "143319.456000", "143319.459000", "143324.447000", "143324.450000", "143324.453000", "143324.456000", "143324.458000", "143329.446000", "143329.449000", "143329.452000", "143329.455000", "143329.457000", "143334.447000", "143334.450000", "143334.453000", "143334.456000", "143334.458000", "143339.447000", "143339.450000", "143339.453000", "143339.456000", "143339.459000", "143344.446000", "143344.449000", "143344.452000", "143344.455000", "143344.457000", "143349.447000", "143349.450000", "143349.453000", "143349.456000", "143349.459000", "143354.447000", "143354.450000", "143354.453000", "143354.456000", "143354.458000", "143359.447000", "143359.450000", "143359.453000", "143359.456000", "143359.459000", "143404.446000", "143404.449000", "143404.452000", "143404.455000", "143404.458000", "143409.447000", "143409.450000", "143409.453000", "143409.456000", "143409.459000", "143413.850000", "143413.855000", "143413.860000", "143413.864000", "143413.866000"],
      "InstanceCreationTime": ["143049.447000", "143049.458000", "143049.461000", "143049.464000", "143049.466000", "143049.469000", "143049.472000", "143054.447000", "143054.450000", "143054.453000", "143054.456000", "143054.470000", "143054.474000", "143054.478000", "143059.447000", "143059.450000", "143059.453000", "143059.455000", "143059.461000", "143059.464000", "143059.466000", "143059.469000", "143104.447000", "143104.450000", "143104.453000", "143104.455000", "143104.458000", "143104.461000", "143104.464000", "143109.446000", "143109.449000", "143109.452000", "143109.454000", "143109.457000", "143109.460000", "143109.463000", "143114.447000", "143114.450000", "143114.453000", "143114.455000", "143114.458000", "143114.461000", "143114.464000", "143119.447000", "143119.450000", "143119.453000", "143119.455000", "143119.458000", "143119.461000", "143119.464000", "143124.446000", "143124.449000", "143124.452000", "143124.455000", "143124.457000", "143124.460000", "143124.463000", "143129.447000", "143129.450000", "143129.453000", "143129.456000", "143129.458000", "143129.461000", "143129.464000", "143134.447000", "143134.450000", "143134.453000", "143134.456000", "143134.458000", "143134.461000", "143134.464000", "143139.447000", "143139.450000", "143139.453000", "143139.456000", "143139.458000", "143139.461000", "143139.464000", "143144.446000", "143144.449000", "143144.452000", "143144.454000", "143144.457000", "143144.460000", "143144.463000", "143149.448000", "143149.452000", "143149.461000", "143149.464000", "143149.467000", "143149.470000", "143149.473000", "143154.447000", "143154.450000", "143154.453000", "143154.455000", "143154.458000", "143154.461000", "143154.464000", "143159.446000", "143159.449000", "143159.452000", "143159.454000", "143159.457000", "143159.460000", "143159.463000", "143159.466000", "143204.447000", "143204.450000", "143204.453000", "143204.456000", "143204.458000", "143204.461000", "143204.464000", "143209.447000", "143209.450000", "143209.453000", "143209.456000", "143209.458000", "143209.461000", "143209.464000", "143214.447000", "143214.450000", "143214.453000", "143214.455000", "143214.458000", "143214.461000", "143214.464000", "143219.446000", "143219.449000", "143219.452000", "143219.454000", "143219.457000", "143219.460000", "143219.463000", "143224.447000", "143224.450000", "143224.453000", "143224.455000", "143224.458000", "143224.461000", "143224.464000", "143229.447000", "143229.450000", "143229.453000", "143229.455000", "143229.458000", "143229.461000", "143229.464000", "143234.446000", "143234.449000", "143234.452000", "143234.455000", "143234.457000", "143234.460000", "143234.463000", "143239.447000", "143239.450000", "143239.453000", "143239.455000", "143239.458000", "143239.461000", "143239.464000", "143244.447000", "143244.450000", "143244.453000", "143244.455000", "143244.458000", "143244.461000", "143244.464000", "143249.447000", "143249.450000", "143249.453000", "143249.456000", "143249.459000", "143249.461000", "143249.464000", "143254.446000", "143254.449000", "143254.452000", "143254.455000", "143254.457000", "143254.460000", "143254.463000", "143259.447000", "143259.450000", "143259.453000", "143259.456000", "143259.458000", "143304.447000", "143304.450000", "143304.453000", "143304.456000", "143304.458000", "143309.446000", "143309.449000", "143309.452000", "143309.455000", "143309.458000", "143314.447000", "143314.450000", "143314.453000", "143314.456000", "143314.459000", "143319.447000", "143319.450000", "143319.453000", "143319.456000", "143319.459000", "143324.447000", "143324.450000", "143324.453000", "143324.456000", "143324.458000", "143329.446000", "143329.449000", "143329.452000", "143329.455000", "143329.457000", "143334.447000", "143334.450000", "143334.453000", "143334.456000", "143334.458000", "143339.447000", "143339.450000", "143339.453000", "143339.456000", "143339.459000", "143344.446000", "143344.449000", "143344.452000", "143344.455000", "143344.457000", "143349.447000", "143349.450000", "143349.453000", "143349.456000", "143349.459000", "143354.447000", "143354.450000", "143354.453000", "143354.456000", "143354.458000", "143359.447000", "143359.450000", "143359.453000", "143359.456000", "143359.459000", "143404.446000", "143404.449000", "143404.452000", "143404.455000", "143404.458000", "143409.447000", "143409.450000", "143409.453000", "143409.456000", "143409.459000", "143413.850000", "143413.855000", "143413.860000", "143413.864000", "143413.866000"],
      "InstanceNumber": [1, 2, 3, 4, 5, 6, 7, 8, 9, 10, 11, 12, 13, 14, 15, 16, 17, 18, 19, 20, 21, 22, 23, 24, 25, 26, 27, 28, 29, 30, 31, 32, 33, 34, 35, 36, 37, 38, 39, 40, 41, 42, 43, 44, 45, 46, 47, 48, 49, 50, 51, 52, 53, 54, 55, 56, 57, 58, 59, 60, 61, 62, 63, 64, 65, 66, 67, 68, 69, 70, 71, 72, 73, 74, 75, 76, 77, 78, 79, 80, 81, 82, 83, 84, 85, 86, 87, 88, 89, 90, 91, 92, 93, 94, 95, 96, 97, 98, 99, 100, 101, 102, 103, 104, 105, 106, 107, 108, 109, 110, 111, 112, 113, 114, 115, 116, 117, 118, 119, 120, 121, 122, 123, 124, 125, 126, 127, 128, 129, 130, 131, 132, 133, 134, 135, 136, 137, 138, 139, 140, 141, 142, 143, 144, 145, 146, 147, 148, 149, 150, 151, 152, 153, 154, 155, 156, 157, 158, 159, 160, 161, 162, 163, 164, 165, 166, 167, 168, 169, 170, 171, 172, 173, 174, 175, 176, 177, 178, 179, 180, 181, 182, 183, 184, 185, 186, 187, 188, 189, 190, 191, 192, 193, 194, 195, 196, 197, 198, 199, 200, 201, 202, 203, 204, 205, 206, 207, 208, 209, 210, 211, 212, 213, 214, 215, 216, 217, 218, 219, 220, 221, 222, 223, 224, 225, 226, 227, 228, 229, 230, 231, 232, 233, 234, 235, 236, 237, 238, 239, 240, 241, 242, 243, 244, 245, 246, 247, 248, 249, 250, 251, 252, 253, 254, 255, 256, 257, 258, 259, 260, 261, 262, 263, 264],
      "LargestImagePixelValue": [36898, 34790, 33577, 33727, 33399, 33394, 33367, 33054, 33734, 33282, 33688, 33852, 33491, 33763, 33848, 33512, 33461, 33373, 33382, 33681, 33852, 33751, 33411, 33687, 33678, 33286, 33494, 33824, 33765, 33782, 33299, 32997, 33448, 33782, 33706, 33600, 33709, 33712, 33882, 33637, 33800, 33803, 33937, 33768, 33937, 34156, 33658, 33826, 33869, 33651, 33933, 33557, 34310, 32982, 33308, 33414, 33401, 33762, 33776, 33594, 33486, 33605, 33734, 33770, 33443, 33407, 33564, 33091, 32998, 33088, 33338, 33656, 33100, 33615, 33500, 33580, 33499, 33687, 33892, 34140, 33963, 33395, 33775, 33684, 33804, 34096, 33892, 33472, 33830, 33487, 33691, 33944, 33680, 33968, 34311, 34001, 33852, 33978, 33886, 33823, 34081, 33271, 33855, 34010, 33767, 33263, 33725, 34108, 34112, 34067, 33779, 33491, 34081, 34005, 34058, 33926, 33371, 33905, 33956, 33123, 33723, 33705, 33584, 33426, 33967, 33777, 33712, 33412, 33792, 34045, 33748, 33451, 33572, 33419, 33678, 33605, 33426, 33730, 33699, 33585, 33375, 33917, 33301, 33713, 33351, 33978, 33588, 33546, 33463, 33434, 33097, 33168, 33453, 33695, 33626, 33486, 33390, 33725, 33341, 33645, 33687, 33630, 33555, 33553, 33578, 33742, 33745, 33669, 33771, 33730, 36095, 33649, 32853, 32978, 33616, 32758, 33663, 33557, 33706, 33736, 33685, 33802, 34656, 34524, 33592, 33804, 33209, 33660, 33849, 33526, 33964, 33282, 33635, 33867, 33553, 33562, 33751, 33724, 33303, 33865, 33515, 33781, 33773, 33638, 33772, 33751, 33771, 33474, 33324, 33577, 33570, 33617, 33401, 33280, 33354, 32727, 32936, 33216, 33422, 33532, 33694, 33315, 33813, 33582, 33595, 35824, 33702, 32773, 32874, 33485, 33306, 33355, 33673, 33727, 33371, 33307, 33274, 36671, 33713, 33153, 33796, 33373, 33415, 33428, 33588, 33334, 33482, 33043, 33324, 33687, 32723, 33404, 33541, 33221, 33474, 33663, 33670, 33756, 33770, 33572, 33627, 33421, 33511, 33598],
      "WindowCenter": [9485.0, 9439.0, 9409.0, 9399.0, 9392.0, 9389.0, 9381.0, 9377.0, 9387.0, 9381.0, 9388.0, 9387.0, 9388.0, 9396.0, 9396.0, 9390.0, 9388.0, 9384.0, 9391.0, 9399.0, 9407.0, 9401.0, 9395.0, 9401.0, 9394.0, 9401.0, 9402.0, 9401.0, 9400.0, 9392.0, 9371.0, 9370.0, 9367.0, 9364.0, 9357.0, 9357.0, 9365.0, 9366.0, 9381.0, 9383.0, 9381.0, 9383.0, 9390.0, 9392.0, 9402.0, 9416.0, 9402.0, 9400.0, 9399.0, 9391.0, 9390.0, 9399.0, 9398.0, 9388.0, 9393.0, 9394.0, 9387.0, 9383.0, 9384.0, 9392.0, 9390.0, 9392.0, 9391.0, 9390.0, 9384.0, 9385.0, 9391.0, 9387.0, 9386.0, 9389.0, 9394.0, 9391.0, 9380.0, 9385.0, 9384.0, 9385.0, 9386.0, 9386.0, 9392.0, 9391.0, 9375.0, 9368.0, 9373.0, 9365.0, 9378.0, 9388.0, 9389.0, 9386.0, 9400.0, 9385.0, 9384.0, 9391.0, 9374.0, 9380.0, 9386.0, 9372.0, 9372.0, 9379.0, 9365.0, 9373.0, 9387.0, 9375.0, 9390.0, 9389.0, 9390.0, 9386.0, 9387.0, 9397.0, 9390.0, 9391.0, 9389.0, 9385.0, 9398.0, 9392.0, 9400.0, 9393.0, 9379.0, 9388.0, 9382.0, 9375.0, 9382.0, 9390.0, 9383.0, 9377.0, 9392.0, 9389.0, 9384.0, 9392.0, 9399.0, 9409.0, 9404.0, 9405.0, 9404.0, 9388.0, 9386.0, 9385.0, 9384.0, 9385.0, 9377.0, 9383.0, 9385.0, 9393.0, 9396.0, 9403.0, 9403.0, 9409.0, 9403.0, 9401.0, 9400.0, 9397.0, 9388.0, 9388.0, 9394.0, 9387.0, 9393.0, 9391.0, 9376.0, 9381.0, 9377.0, 9384.0, 9384.0, 9394.0, 9394.0, 9403.0, 9403.0, 9388.0, 9379.0, 9378.0, 9384.0, 9386.0, 9414.0, 9384.0, 9377.0, 9379.0, 9385.0, 9387.0, 9402.0, 9404.0, 9404.0, 9395.0, 9386.0, 9385.0, 9384.0, 9382.0, 9383.0, 9389.0, 9379.0, 9393.0, 9392.0, 9386.0, 9385.0, 9371.0, 9374.0, 9380.0, 9381.0, 9385.0, 9399.0, 9395.0, 9397.0, 9402.0, 9396.0, 9404.0, 9413.0, 9414.0, 9422.0, 9415.0, 9413.0, 9400.0, 9405.0, 9405.0, 9406.0, 9397.0, 9383.0, 9373.0, 9374.0, 9366.0, 9366.0, 9382.0, 9389.0, 9390.0, 9397.0, 9391.0, 9395.0, 9380.0, 9371.0, 9383.0, 9360.0, 9358.0, 9375.0, 9407.0, 9402.0, 9395.0, 9398.0, 9382.0, 9382.0, 9375.0, 9376.0, 9408.0, 9373.0, 9373.0, 9379.0, 9382.0, 9383.0, 9392.0, 9399.0, 9401.0, 9398.0, 9391.0, 9388.0, 9387.0, 9375.0, 9372.0, 9379.0, 9380.0, 9379.0, 9387.0, 9395.0, 9396.0, 9405.0, 9398.0, 9387.0, 9379.0, 9378.0, 9378.0],
      "WindowWidth": [20166.0, 20057.0, 19993.0, 19967.0, 19952.0, 19940.0, 19922.0, 19919.0, 19932.0, 19924.0, 19938.0, 19935.0, 19938.0, 19954.0, 19955.0, 19945.0, 19939.0, 19933.0, 19948.0, 19969.0, 19989.0, 19980.0, 19966.0, 19978.0, 19965.0, 19978.0, 19983.0, 19978.0, 19976.0, 19960.0, 19916.0, 19910.0, 19900.0, 19889.0, 19875.0, 19876.0, 19894.0, 19901.0, 19930.0, 19935.0, 19928.0, 19935.0, 19949.0, 19957.0, 19980.0, 20009.0, 19980.0, 19973.0, 19969.0, 19951.0, 19949.0, 19974.0, 19969.0, 19951.0, 19959.0, 19962.0, 19947.0, 19937.0, 19941.0, 19956.0, 19950.0, 19954.0, 19952.0, 19946.0, 19938.0, 19942.0, 19952.0, 19945.0, 19946.0, 19953.0, 19960.0, 19951.0, 19933.0, 19941.0, 19938.0, 19947.0, 19948.0, 19948.0, 19957.0, 19951.0, 19917.0, 19903.0, 19912.0, 19893.0, 19916.0, 19937.0, 19942.0, 19948.0, 19975.0, 19944.0, 19939.0, 19951.0, 19916.0, 19923.0, 19932.0, 19904.0, 19904.0, 19916.0, 19890.0, 19910.0, 19938.0, 19920.0, 19949.0, 19948.0, 19950.0, 19948.0, 19950.0, 19965.0, 19951.0, 19953.0, 19947.0, 19943.0, 19968.0, 19957.0, 19976.0, 19963.0, 19933.0, 19942.0, 19929.0, 19915.0, 19928.0, 19945.0, 19934.0, 19926.0, 19956.0, 19950.0, 19943.0, 19959.0, 19975.0, 19996.0, 19991.0, 19995.0, 19990.0, 19954.0, 19945.0, 19941.0, 19941.0, 19942.0, 19926.0, 19938.0, 19946.0, 19961.0, 19970.0, 19985.0, 19985.0, 19993.0, 19980.0, 19972.0, 19969.0, 19965.0, 19948.0, 19952.0, 19964.0, 19949.0, 19957.0, 19950.0, 19915.0, 19925.0, 19923.0, 19936.0, 19940.0, 19963.0, 19964.0, 19984.0, 19985.0, 19952.0, 19932.0, 19927.0, 19938.0, 19949.0, 19993.0, 19940.0, 19925.0, 19929.0, 19939.0, 19950.0, 19981.0, 19986.0, 19987.0, 19965.0, 19945.0, 19943.0, 19941.0, 19932.0, 19933.0, 19945.0, 19929.0, 19960.0, 19957.0, 19947.0, 19941.0, 19908.0, 19907.0, 19918.0, 19922.0, 19938.0, 19968.0, 19964.0, 19970.0, 19977.0, 19969.0, 19985.0, 20007.0, 20012.0, 20029.0, 20016.0, 20006.0, 19981.0, 19992.0, 19991.0, 19993.0, 19973.0, 19941.0, 19916.0, 19922.0, 19904.0, 19904.0, 19940.0, 19952.0, 19955.0, 19972.0, 19960.0, 19967.0, 19931.0, 19911.0, 19919.0, 19879.0, 19886.0, 19926.0, 19994.0, 19987.0, 19972.0, 19971.0, 19936.0, 19934.0, 19924.0, 19928.0, 19978.0, 19919.0, 19917.0, 19927.0, 19938.0, 19942.0, 19963.0, 19976.0, 19980.0, 19971.0, 19955.0, 19942.0, 19939.0, 19919.0, 19908.0, 19922.0, 19926.0, 19923.0, 19939.0, 19956.0, 19963.0, 19982.0, 19968.0, 19942.0, 19922.0, 19919.0, 19921.0]
    },
    "slices": {}
  },
  "NumberOfVolumes": 264
}