{
  "AcquisitionMatrixPE": 104,
  "AcquisitionNumber": 1,
  "AcquisitionTime": "14:44:23.505000",
  "BandwidthPerPixelPhaseEncode": 16.578,
  "BaseResolution": 104,
  "BodyPartExamined": "BRAIN",
  "ConsistencyInfo": "N4_VE11C_LATEST_20160120",
  "ConversionSoftware": "dcm2niix",
  "ConversionSoftwareVersion": "v1.0.20190410  GCC6.3.0",
  "DerivedVendorReportedEchoSpacing": 0.000580009,
  "DeviceSerialNumber": "166018",
  "DwellTime": 2.1e-06,
  "EchoTime": 0.037,
  "EchoTrainLength": 104,
  "EffectiveEchoSpacing": 0.000580009,
  "FlipAngle": 68,
  "ImageComments": "Unaliased_MB6_PE3_LB",
  "ImageOrientationPatientDICOM": [0.997547, -0.0602919, -0.0355546, 0.0479156, 0.958503, -0.281028],
  "ImageType": [
    "ORIGINAL",
    "PRIMARY",
    "M",
    "MB",
    "ND",
    "MOSAIC"
],
  "ImagingFrequency": 123.191,
  "InPlanePhaseEncodingDirectionDICOM": "COL",
  "InstitutionAddress": "Washington_Place_6_NYC_NYC_US_10003",
  "InstitutionName": "NYU_Center_for_Brain_Imaging",
  "InstitutionalDepartmentName": "Department",
  "MRAcquisitionType": "2D",
  "MagneticFieldStrength": 3,
  "Manufacturer": "Siemens",
  "ManufacturersModelName": "Prisma",
  "Modality": "MR",
  "MultibandAccelerationFactor": 6,
  "PartialFourier": 1,
  "PatientPosition": "HFS",
  "PercentPhaseFOV": 100,
  "PhaseEncodingDirection": "j",
  "PhaseEncodingSteps": 104,
  "PhaseResolution": 1,
  "PixelBandwidth": 2290,
  "ProcedureStepDescription": "Investigators_Winawer",
  "ProtocolName": "task-sfprescaled_cmrr_mbepi_s6_2mm_66sl_PA_TR1.0",
  "PulseSequenceDetails": "%CustomerSeq%_cmrr_mbep2d_bold",
  "ReceiveCoilActiveElements": "HC1-7",
  "ReceiveCoilName": "HeadNeck_64",
  "ReconMatrixPE": 104,
  "RepetitionTime": 1,
  "SAR": 0.0599872,
  "ScanOptions": "FS",
  "ScanningSequence": "EP",
  "SequenceName": "epfid2d1_104",
  "SequenceVariant": "SK_SS",
  "SeriesDescription": "task-sfprescaled_cmrr_mbepi_s6_2mm_66sl_PA_TR1.0",
  "SeriesNumber": 20,
  "ShimSetting": [244, -12533, -8553, 292, -42, 159, -175, 26],
  "SliceThickness": 2,
  "SliceTiming": [0, 0.535, 0.09, 0.625, 0.18, 0.715, 0.2675, 0.8025, 0.3575, 0.8925, 0.4475, 0, 0.535, 0.09, 0.625, 0.18, 0.715, 0.2675, 0.8025, 0.3575, 0.8925, 0.4475, 0, 0.535, 0.09, 0.625, 0.18, 0.715, 0.2675, 0.8025, 0.3575, 0.8925, 0.4475, 0, 0.535, 0.09, 0.625, 0.18, 0.715, 0.2675, 0.8025, 0.3575, 0.8925, 0.4475, 0, 0.535, 0.09, 0.625, 0.18, 0.715, 0.2675, 0.8025, 0.3575, 0.8925, 0.4475, 0, 0.535, 0.09, 0.625, 0.18, 0.715, 0.2675, 0.8025, 0.3575, 0.8925, 0.4475],
  "SoftwareVersions": "syngo_MR_E11",
  "SpacingBetweenSlices": 2,
  "StationName": "AWP166018",
  "TaskName": "sfprescaled",
  "TotalReadoutTime": 0.0597409,
  "TxRefAmp": 201.638,
  "WipMemBlock": "e446e14a-dced-4007-87d9-d2781c55cea2||Sequence: R016 ve11c/master r/8780670; Nov 27 2017 15:05:12 by eja",
  "dcmmeta_affine": [
    [-1.9950947761535645, 0.09583121538162231, -0.10204588621854782, 113.34072875976562],
    [0.12058382481336594, 1.9170050621032715, -0.5572711229324341, -73.6729507446289],
    [-0.07110926508903503, 0.5620568990707397, 1.9180811643600464, -78.0055923461914],
    [0.0, 0.0, 0.0, 1.0]
],
  "dcmmeta_reorient_transform": [
    [0.0, -1.0, 0.0, 103.0],
    [1.0, 0.0, 0.0, 0.0],
    [0.0, 0.0, 1.0, 0.0],
    [0.0, 0.0, 0.0, 1.0]
],
  "dcmmeta_shape": [104, 104, 66, 264],
  "dcmmeta_slice_dim": 2,
  "dcmmeta_version": 0.6,
  "global": {
    "const": {
      "AccessionNumber": "k5onhzs7",
      "AcquisitionMatrix": [104, 0, 0, 104],
      "AngioFlag": "N",
      "BitsAllocated": 16,
      "BitsStored": 16,
      "BodyPartExamined": "BRAIN",
      "Columns": 936,
      "EchoNumbers": 1,
      "EchoTime": 37.0,
      "EchoTrainLength": 104,
      "FlipAngle": 68.0,
      "HighBit": 15,
      "ImageOrientationPatient": [0.99754736907445, -0.0602919119506, -0.0355546312874, 0.04791560694718, 0.95850253404615, -0.2810284448913],
      "ImagePositionPatient": [-993.03653895377, -871.08980635917, 243.28338726346],
      "ImageType": [
        "ORIGINAL",
        "PRIMARY",
        "M",
        "MB",
        "ND",
        "MOSAIC"
],
      "ImagedNucleus": "1H",
      "ImagingFrequency": 123.190782,
      "InPlanePhaseEncodingDirection": "COL",
      "MRAcquisitionType": "2D",
      "MagneticFieldStrength": 3.0,
      "Manufacturer": "SIEMENS",
      "ManufacturerModelName": "Prisma",
      "Modality": "MR",
      "NumberOfAverages": 1.0,
      "NumberOfPhaseEncodingSteps": 104,
      "PercentPhaseFieldOfView": 100.0,
      "PercentSampling": 100.0,
      "PerformedProcedureStepStartTime": "140037.811000",
      "PhotometricInterpretation": "MONOCHROME2",
      "PixelBandwidth": 2290.0,
      "PixelRepresentation": 0,
      "PixelSpacing": [2.0, 2.0],
      "ProtocolName": "task-sfprescaled_cmrr_mbepi_s6_2mm_66sl_PA_TR1.0",
      "RepetitionTime": 1000.0,
      "Rows": 936,
      "SAR": 0.05998716687588,
      "SamplesPerPixel": 1,
      "ScanOptions": "FS",
      "ScanningSequence": "EP",
      "SequenceName": "epfid2d1_104",
      "SequenceVariant": [
        "SK",
        "SS"
],
      "SeriesDescription": "task-sfprescaled_cmrr_mbepi_s6_2mm_66sl_PA_TR1.0",
      "SeriesNumber": 20,
      "SeriesTime": "144524.045000",
      "SliceLocation": -60.065602895364,
      "SliceThickness": 2.0,
      "SmallestImagePixelValue": 0,
      "SoftwareVersions": "syngo MR E11",
      "SpacingBetweenSlices": 1.9999999262666,
      "SpecificCharacterSet": "ISO_IR 100",
      "StudyID": "1",
      "StudyTime": "140037.749000",
      "TransmitCoilName": "Body",
      "VariableFlipAngleFlag": "N",
      "WindowCenterWidthExplanation": "Algo1",
      "dBdt": 0.0},
    "slices": {}
  },
  "time": {
    "samples": {
      "AcquisitionNumber": [1, 2, 3, 4, 5, 6, 7, 8, 9, 10, 11, 12, 13, 14, 15, 16, 17, 18, 19, 20, 21, 22, 23, 24, 25, 26, 27, 28, 29, 30, 31, 32, 33, 34, 35, 36, 37, 38, 39, 40, 41, 42, 43, 44, 45, 46, 47, 48, 49, 50, 51, 52, 53, 54, 55, 56, 57, 58, 59, 60, 61, 62, 63, 64, 65, 66, 67, 68, 69, 70, 71, 72, 73, 74, 75, 76, 77, 78, 79, 80, 81, 82, 83, 84, 85, 86, 87, 88, 89, 90, 91, 92, 93, 94, 95, 96, 97, 98, 99, 100, 101, 102, 103, 104, 105, 106, 107, 108, 109, 110, 111, 112, 113, 114, 115, 116, 117, 118, 119, 120, 121, 122, 123, 124, 125, 126, 127, 128, 129, 130, 131, 132, 133, 134, 135, 136, 137, 138, 139, 140, 141, 142, 143, 144, 145, 146, 147, 148, 149, 150, 151, 152, 153, 154, 155, 156, 157, 158, 159, 160, 161, 162, 163, 164, 165, 166, 167, 168, 169, 170, 171, 172, 173, 174, 175, 176, 177, 178, 179, 180, 181, 182, 183, 184, 185, 186, 187, 188, 189, 190, 191, 192, 193, 194, 195, 196, 197, 198, 199, 200, 201, 202, 203, 204, 205, 206, 207, 208, 209, 210, 211, 212, 213, 214, 215, 216, 217, 218, 219, 220, 221, 222, 223, 224, 225, 226, 227, 228, 229, 230, 231, 232, 233, 234, 235, 236, 237, 238, 239, 240, 241, 242, 243, 244, 245, 246, 247, 248, 249, 250, 251, 252, 253, 254, 255, 256, 257, 258, 259, 260, 261, 262, 263, 264],
      "AcquisitionTime": ["144423.505000", "144424.505000", "144425.505000", "144426.505000", "144427.505000", "144428.505000", "144429.505000", "144430.505000", "144431.505000", "144432.505000", "144433.505000", "144434.505000", "144435.505000", "144436.505000", "144437.505000", "144438.505000", "144439.505000", "144440.505000", "144441.505000", "144442.505000", "144443.505000", "144444.505000", "144445.505000", "144446.505000", "144447.505000", "144448.505000", "144449.505000", "144450.505000", "144451.505000", "144452.505000", "144453.505000", "144454.505000", "144455.505000", "144456.505000", "144457.505000", "144458.505000", "144459.505000", "144500.505000", "144501.505000", "144502.505000", "144503.505000", "144504.505000", "144505.505000", "144506.505000", "144507.505000", "144508.505000", "144509.505000", "144510.505000", "144511.505000", "144512.505000", "144513.505000", "144514.505000", "144515.505000", "144516.505000", "144517.505000", "144518.505000", "144519.505000", "144520.505000", "144521.505000", "144522.505000", "144523.505000", "144524.505000", "144525.505000", "144526.505000", "144527.505000", "144528.505000", "144529.505000", "144530.505000", "144531.505000", "144532.505000", "144533.505000", "144534.505000", "144535.505000", "144536.505000", "144537.505000", "144538.505000", "144539.505000", "144540.505000", "144541.505000", "144542.505000", "144543.505000", "144544.505000", "144545.505000", "144546.505000", "144547.505000", "144548.505000", "144549.505000", "144550.505000", "144551.505000", "144552.505000", "144553.505000", "144554.505000", "144555.505000", "144556.505000", "144557.505000", "144558.505000", "144559.505000", "144600.505000", "144601.505000", "144602.505000", "144603.505000", "144604.505000", "144605.505000", "144606.505000", "144607.505000", "144608.505000", "144609.505000", "144610.505000", "144611.505000", "144612.505000", "144613.505000", "144614.505000", "144615.505000", "144616.505000", "144617.505000", "144618.505000", "144619.505000", "144620.505000", "144621.505000", "144622.505000", "144623.505000", "144624.505000", "144625.505000", "144626.505000", "144627.505000", "144628.505000", "144629.505000", "144630.505000", "144631.505000", "144632.505000", "144633.505000", "144634.505000", "144635.505000", "144636.505000", "144637.505000", "144638.505000", "144639.505000", "144640.505000", "144641.505000", "144642.505000", "144643.505000", "144644.505000", "144645.505000", "144646.505000", "144647.505000", "144648.505000", "144649.505000", "144650.505000", "144651.505000", "144652.505000", "144653.505000", "144654.505000", "144655.505000", "144656.505000", "144657.505000", "144658.505000", "144659.505000", "144700.505000", "144701.505000", "144702.505000", "144703.505000", "144704.505000", "144705.505000", "144706.505000", "144707.505000", "144708.505000", "144709.505000", "144710.505000", "144711.505000", "144712.505000", "144713.505000", "144714.505000", "144715.505000", "144716.505000", "144717.505000", "144718.505000", "144719.505000", "144720.505000", "144721.505000", "144722.505000", "144723.505000", "144724.505000", "144725.505000", "144726.505000", "144727.505000", "144728.505000", "144729.505000", "144730.505000", "144731.505000", "144732.505000", "144733.505000", "144734.505000", "144735.505000", "144736.505000", "144737.505000", "144738.505000", "144739.505000", "144740.505000", "144741.505000", "144742.505000", "144743.505000", "144744.505000", "144745.505000", "144746.505000", "144747.505000", "144748.505000", "144749.505000", "144750.505000", "144751.505000", "144752.505000", "144753.505000", "144754.505000", "144755.505000", "144756.505000", "144757.505000", "144758.505000", "144759.505000", "144800.505000", "144801.505000", "144802.505000", "144803.505000", "144804.505000", "144805.505000", "144806.505000", "144807.505000", "144808.505000", "144809.505000", "144810.505000", "144811.505000", "144812.505000", "144813.505000", "144814.505000", "144815.505000", "144816.505000", "144817.505000", "144818.505000", "144819.505000", "144820.505000", "144821.505000", "144822.505000", "144823.505000", "144824.505000", "144825.505000", "144826.505000", "144827.505000", "144828.505000", "144829.505000", "144830.505000", "144831.505000", "144832.505000", "144833.505000", "144834.505000", "144835.505000", "144836.505000", "144837.505000", "144838.505000", "144839.505000", "144840.505000", "144841.505000", "144842.505000", "144843.505000", "144844.505000", "144845.505000", "144846.505000"],
      "ContentTime": ["144524.048000", "144524.051000", "144524.054000", "144524.057000", "144524.060000", "144529.002000", "144529.005000", "144529.012000", "144529.015000", "144529.018000", "144529.020000", "144529.023000", "144534.002000", "144534.005000", "144534.018000", "144534.021000", "144534.024000", "144534.026000", "144534.029000", "144539.002000", "144539.005000", "144539.008000", "144539.010000", "144539.013000", "144539.016000", "144539.019000", "144544.001000", "144544.004000", "144544.007000", "144544.010000", "144544.013000", "144544.015000", "144544.018000", "144549.002000", "144549.005000", "144549.008000", "144549.011000", "144549.014000", "144549.016000", "144549.019000", "144554.002000", "144554.005000", "144554.008000", "144554.011000", "144554.014000", "144554.016000", "144554.019000", "144559.002000", "144559.006000", "144559.010000", "144559.023000", "144559.026000", "144559.029000", "144559.032000", "144604.002000", "144604.005000", "144604.008000", "144604.011000", "144604.014000", "144604.017000", "144604.020000", "144609.003000", "144609.007000", "144609.009000", "144609.012000", "144609.015000", "144609.018000", "144609.021000", "144614.002000", "144614.005000", "144614.008000", "144614.011000", "144614.014000", "144614.017000", "144614.019000", "144619.001000", "144619.004000", "144619.007000", "144619.009000", "144619.012000", "144619.015000", "144619.018000", "144619.021000", "144624.002000", "144624.005000", "144624.008000", "144624.010000", "144624.013000", "144624.016000", "144624.019000", "144629.002000", "144629.005000", "144629.008000", "144629.010000", "144629.013000", "144629.016000", "144629.019000", "144634.001000", "144634.004000", "144634.007000", "144634.010000", "144634.012000", "144634.015000", "144634.018000", "144639.002000", "144639.005000", "144639.008000", "144639.011000", "144639.013000", "144639.016000", "144639.019000", "144644.002000", "144644.005000", "144644.008000", "144644.011000", "144644.013000", "144644.016000", "144644.019000", "144649.002000", "144649.005000", "144649.008000", "144649.010000", "144649.013000", "144649.016000", "144649.019000", "144654.001000", "144654.010000", "144654.014000", "144654.016000", "144654.019000", "144654.022000", "144654.025000", "144659.002000", "144659.005000", "144659.008000", "144659.011000", "144659.014000", "144659.016000", "144659.019000", "144704.002000", "144704.005000", "144704.008000", "144704.011000", "144704.014000", "144704.016000", "144704.019000", "144709.001000", "144709.019000", "144709.022000", "144709.025000", "144709.027000", "144709.030000", "144709.033000", "144714.002000", "144714.005000", "144714.008000", "144714.011000", "144714.014000", "144714.017000", "144714.019000", "144719.002000", "144719.005000", "144719.008000", "144719.011000", "144719.014000", "144719.016000", "144719.019000", "144724.002000", "144724.005000", "144724.008000", "144724.011000", "144724.014000", "144724.017000", "144724.020000", "144729.001000", "144729.004000", "144729.007000", "144729.009000", "144729.012000", "144729.015000", "144729.018000", "144729.021000", "144734.002000", "144734.005000", "144734.008000", "144734.011000", "144734.013000", "144734.016000", "144734.019000", "144739.002000", "144739.005000", "144739.008000", "144739.011000", "144739.013000", "144744.001000", "144744.004000", "144744.007000", "144744.010000", "144744.013000", "144749.002000", "144749.005000", "144749.008000", "144749.011000", "144749.014000", "144754.002000", "144754.005000", "144754.008000", "144754.011000", "144754.014000", "144759.002000", "144759.005000", "144759.008000", "144759.011000", "144759.014000", "144804.001000", "144804.004000", "144804.007000", "144804.010000", "144804.012000", "144809.002000", "144809.005000", "144809.008000", "144809.011000", "144809.014000", "144814.002000", "144814.005000", "144814.008000", "144814.011000", "144814.014000", "144819.001000", "144819.004000", "144819.007000", "144819.010000", "144819.013000", "144824.002000", "144824.005000", "144824.008000", "144824.011000", "144824.014000", "144829.002000", "144829.005000", "144829.008000", "144829.011000", "144829.013000", "144834.002000", "144834.011000", "144834.014000", "144834.017000", "144834.020000", "144839.001000", "144839.004000", "144839.007000", "144839.010000", "144839.013000", "144844.002000", "144844.005000", "144844.008000", "144844.011000", "144844.014000", "144848.371000", "144848.376000", "144848.381000", "144848.384000", "144848.387000"],
      "InstanceCreationTime": ["144524.048000", "144524.051000", "144524.054000", "144524.057000", "144524.060000", "144529.002000", "144529.005000", "144529.012000", "144529.015000", "144529.018000", "144529.020000", "144529.023000", "144534.002000", "144534.005000", "144534.018000", "144534.021000", "144534.024000", "144534.026000", "144534.029000", "144539.002000", "144539.005000", "144539.008000", "144539.010000", "144539.013000", "144539.016000", "144539.019000", "144544.001000", "144544.004000", "144544.007000", "144544.010000", "144544.013000", "144544.015000", "144544.018000", "144549.002000", "144549.005000", "144549.008000", "144549.011000", "144549.014000", "144549.016000", "144549.019000", "144554.002000", "144554.005000", "144554.008000", "144554.011000", "144554.014000", "144554.016000", "144554.019000", "144559.002000", "144559.006000", "144559.010000", "144559.023000", "144559.026000", "144559.029000", "144559.032000", "144604.002000", "144604.005000", "144604.008000", "144604.011000", "144604.014000", "144604.017000", "144604.020000", "144609.003000", "144609.007000", "144609.009000", "144609.012000", "144609.015000", "144609.018000", "144609.021000", "144614.002000", "144614.005000", "144614.008000", "144614.011000", "144614.014000", "144614.017000", "144614.019000", "144619.001000", "144619.004000", "144619.007000", "144619.009000", "144619.012000", "144619.015000", "144619.018000", "144619.021000", "144624.002000", "144624.005000", "144624.008000", "144624.010000", "144624.013000", "144624.016000", "144624.019000", "144629.002000", "144629.005000", "144629.008000", "144629.010000", "144629.013000", "144629.016000", "144629.019000", "144634.001000", "144634.004000", "144634.007000", "144634.010000", "144634.012000", "144634.015000", "144634.018000", "144639.002000", "144639.005000", "144639.008000", "144639.011000", "144639.013000", "144639.016000", "144639.019000", "144644.002000", "144644.005000", "144644.008000", "144644.011000", "144644.013000", "144644.016000", "144644.019000", "144649.002000", "144649.005000", "144649.008000", "144649.010000", "144649.013000", "144649.016000", "144649.019000", "144654.001000", "144654.010000", "144654.014000", "144654.016000", "144654.019000", "144654.022000", "144654.025000", "144659.002000", "144659.005000", "144659.008000", "144659.011000", "144659.014000", "144659.016000", "144659.019000", "144704.002000", "144704.005000", "144704.008000", "144704.011000", "144704.014000", "144704.016000", "144704.019000", "144709.001000", "144709.019000", "144709.022000", "144709.025000", "144709.027000", "144709.030000", "144709.033000", "144714.002000", "144714.005000", "144714.008000", "144714.011000", "144714.014000", "144714.017000", "144714.019000", "144719.002000", "144719.005000", "144719.008000", "144719.011000", "144719.014000", "144719.016000", "144719.019000", "144724.002000", "144724.005000", "144724.008000", "144724.011000", "144724.014000", "144724.017000", "144724.020000", "144729.001000", "144729.004000", "144729.007000", "144729.009000", "144729.012000", "144729.015000", "144729.018000", "144729.021000", "144734.002000", "144734.005000", "144734.008000", "144734.011000", "144734.013000", "144734.016000", "144734.019000", "144739.002000", "144739.005000", "144739.008000", "144739.011000", "144739.013000", "144744.001000", "144744.004000", "144744.007000", "144744.010000", "144744.013000", "144749.002000", "144749.005000", "144749.008000", "144749.011000", "144749.014000", "144754.002000", "144754.005000", "144754.008000", "144754.011000", "144754.014000", "144759.002000", "144759.005000", "144759.008000", "144759.011000", "144759.014000", "144804.001000", "144804.004000", "144804.007000", "144804.010000", "144804.012000", "144809.002000", "144809.005000", "144809.008000", "144809.011000", "144809.014000", "144814.002000", "144814.005000", "144814.008000", "144814.011000", "144814.014000", "144819.001000", "144819.004000", "144819.007000", "144819.010000", "144819.013000", "144824.002000", "144824.005000", "144824.008000", "144824.011000", "144824.014000", "144829.002000", "144829.005000", "144829.008000", "144829.011000", "144829.013000", "144834.002000", "144834.011000", "144834.014000", "144834.017000", "144834.020000", "144839.001000", "144839.004000", "144839.007000", "144839.010000", "144839.013000", "144844.002000", "144844.005000", "144844.008000", "144844.011000", "144844.014000", "144848.371000", "144848.376000", "144848.381000", "144848.384000", "144848.387000"],
      "InstanceNumber": [1, 2, 3, 4, 5, 6, 7, 8, 9, 10, 11, 12, 13, 14, 15, 16, 17, 18, 19, 20, 21, 22, 23, 24, 25, 26, 27, 28, 29, 30, 31, 32, 33, 34, 35, 36, 37, 38, 39, 40, 41, 42, 43, 44, 45, 46, 47, 48, 49, 50, 51, 52, 53, 54, 55, 56, 57, 58, 59, 60, 61, 62, 63, 64, 65, 66, 67, 68, 69, 70, 71, 72, 73, 74, 75, 76, 77, 78, 79, 80, 81, 82, 83, 84, 85, 86, 87, 88, 89, 90, 91, 92, 93, 94, 95, 96, 97, 98, 99, 100, 101, 102, 103, 104, 105, 106, 107, 108, 109, 110, 111, 112, 113, 114, 115, 116, 117, 118, 119, 120, 121, 122, 123, 124, 125, 126, 127, 128, 129, 130, 131, 132, 133, 134, 135, 136, 137, 138, 139, 140, 141, 142, 143, 144, 145, 146, 147, 148, 149, 150, 151, 152, 153, 154, 155, 156, 157, 158, 159, 160, 161, 162, 163, 164, 165, 166, 167, 168, 169, 170, 171, 172, 173, 174, 175, 176, 177, 178, 179, 180, 181, 182, 183, 184, 185, 186, 187, 188, 189, 190, 191, 192, 193, 194, 195, 196, 197, 198, 199, 200, 201, 202, 203, 204, 205, 206, 207, 208, 209, 210, 211, 212, 213, 214, 215, 216, 217, 218, 219, 220, 221, 222, 223, 224, 225, 226, 227, 228, 229, 230, 231, 232, 233, 234, 235, 236, 237, 238, 239, 240, 241, 242, 243, 244, 245, 246, 247, 248, 249, 250, 251, 252, 253, 254, 255, 256, 257, 258, 259, 260, 261, 262, 263, 264],
      "LargestImagePixelValue": [41147, 36526, 35966, 35782, 35817, 35344, 35920, 35602, 35593, 35257, 35631, 35478, 35447, 35664, 35922, 35809, 35403, 35697, 35426, 35496, 36215, 35756, 35373, 35148, 35058, 35336, 35182, 35663, 35179, 35263, 35899, 35666, 35539, 36194, 35736, 35592, 35717, 35823, 35364, 36200, 35634, 35325, 35806, 35572, 35124, 35776, 35516, 35072, 35550, 35100, 35073, 35421, 35440, 34992, 35497, 35446, 35663, 35477, 35883, 35881, 35861, 35405, 36013, 35668, 35391, 35580, 35647, 35925, 35383, 34916, 35437, 35696, 35655, 35823, 35677, 36098, 35533, 35573, 35595, 35551, 35166, 35624, 35972, 35270, 35295, 35688, 35288, 35409, 35778, 35989, 35381, 35873, 35841, 35887, 35611, 35810, 35102, 35273, 35490, 35690, 35822, 36199, 35990, 35725, 35783, 36193, 35820, 35505, 35895, 35540, 35584, 35878, 35846, 35480, 39918, 36371, 35378, 35642, 35276, 35485, 35260, 35999, 36106, 35696, 35246, 36101, 36088, 35327, 35260, 36259, 36096, 35855, 35959, 35559, 35425, 35622, 35616, 35443, 35765, 36134, 35747, 35898, 36175, 35690, 35258, 35355, 35258, 35550, 35310, 35793, 35655, 35816, 36038, 36191, 35745, 36049, 35469, 35458, 35846, 35507, 35480, 35590, 35453, 35711, 36133, 35736, 35273, 35814, 35840, 36097, 35427, 36056, 35634, 35377, 36171, 36219, 35792, 36102, 35963, 35260, 35721, 35744, 35328, 35495, 36196, 35794, 35194, 36045, 35797, 35467, 35350, 35687, 35336, 35523, 35369, 38652, 35360, 35659, 35906, 35422, 35361, 35194, 35203, 35734, 35280, 35551, 35811, 35300, 35715, 35817, 35327, 35580, 35573, 35234, 35587, 36060, 35739, 35525, 35562, 36091, 36001, 35632, 35649, 38404, 35319, 35631, 37634, 37499, 35513, 35309, 35301, 34888, 35892, 35290, 35405, 35845, 35709, 35281, 35690, 35620, 35940, 35649, 35978, 36022, 35829, 35740, 35710, 36091, 35250, 36179, 35982, 35484, 35735, 35870, 35491, 35578, 35939, 35487, 35616, 35812, 36559, 35394, 36287, 36284],
      "WindowCenter": [9557.0, 9481.0, 9455.0, 9446.0, 9443.0, 9429.0, 9433.0, 9427.0, 9436.0, 9430.0, 9428.0, 9427.0, 9419.0, 9412.0, 9417.0, 9425.0, 9426.0, 9416.0, 9419.0, 9420.0, 9420.0, 9419.0, 9406.0, 9401.0, 9405.0, 9414.0, 9422.0, 9431.0, 9422.0, 9414.0, 9419.0, 9413.0, 9421.0, 9433.0, 9421.0, 9422.0, 9420.0, 9427.0, 9439.0, 9445.0, 9431.0, 9432.0, 9431.0, 9423.0, 9421.0, 9428.0, 9430.0, 9424.0, 9430.0, 9415.0, 9406.0, 9397.0, 9396.0, 9399.0, 9411.0, 9412.0, 9412.0, 9403.0, 9403.0, 9407.0, 9408.0, 9412.0, 9424.0, 9422.0, 9431.0, 9438.0, 9439.0, 9445.0, 9430.0, 9424.0, 9428.0, 9420.0, 9413.0, 9411.0, 9405.0, 9412.0, 9407.0, 9413.0, 9413.0, 9422.0, 9425.0, 9430.0, 9438.0, 9424.0, 9420.0, 9419.0, 9421.0, 9428.0, 9427.0, 9428.0, 9430.0, 9430.0, 9423.0, 9432.0, 9431.0, 9432.0, 9424.0, 9423.0, 9431.0, 9436.0, 9432.0, 9437.0, 9433.0, 9447.0, 9439.0, 9430.0, 9428.0, 9421.0, 9422.0, 9429.0, 9432.0, 9430.0, 9425.0, 9425.0, 9454.0, 9418.0, 9412.0, 9423.0, 9424.0, 9424.0, 9420.0, 9408.0, 9412.0, 9406.0, 9408.0, 9420.0, 9418.0, 9406.0, 9404.0, 9408.0, 9412.0, 9418.0, 9420.0, 9422.0, 9424.0, 9424.0, 9426.0, 9425.0, 9421.0, 9413.0, 9404.0, 9396.0, 9400.0, 9404.0, 9415.0, 9411.0, 9410.0, 9417.0, 9402.0, 9405.0, 9404.0, 9402.0, 9401.0, 9408.0, 9410.0, 9426.0, 9440.0, 9444.0, 9450.0, 9427.0, 9409.0, 9392.0, 9394.0, 9396.0, 9402.0, 9403.0, 9399.0, 9405.0, 9412.0, 9419.0, 9416.0, 9421.0, 9416.0, 9416.0, 9419.0, 9421.0, 9428.0, 9444.0, 9449.0, 9452.0, 9458.0, 9448.0, 9434.0, 9427.0, 9430.0, 9425.0, 9426.0, 9439.0, 9450.0, 9452.0, 9457.0, 9469.0, 9449.0, 9440.0, 9429.0, 9444.0, 9417.0, 9423.0, 9441.0, 9450.0, 9453.0, 9439.0, 9430.0, 9425.0, 9405.0, 9401.0, 9407.0, 9411.0, 9417.0, 9423.0, 9419.0, 9427.0, 9429.0, 9430.0, 9421.0, 9426.0, 9424.0, 9417.0, 9410.0, 9413.0, 9416.0, 9418.0, 9436.0, 9467.0, 9448.0, 9448.0, 9453.0, 9447.0, 9429.0, 9430.0, 9430.0, 9423.0, 9433.0, 9426.0, 9427.0, 9425.0, 9417.0, 9411.0, 9423.0, 9434.0, 9442.0, 9437.0, 9433.0, 9431.0, 9417.0, 9415.0, 9421.0, 9427.0, 9428.0, 9438.0, 9441.0, 9442.0, 9441.0, 9439.0, 9431.0, 9423.0, 9415.0, 9422.0, 9423.0, 9428.0, 9427.0, 9422.0, 9419.0, 9420.0],
      "WindowWidth": [20318.0, 20153.0, 20089.0, 20066.0, 20056.0, 20029.0, 20030.0, 20021.0, 20042.0, 20029.0, 20021.0, 20017.0, 20001.0, 19986.0, 19995.0, 20012.0, 20018.0, 19994.0, 20006.0, 20012.0, 20012.0, 20010.0, 19985.0, 19977.0, 19981.0, 20003.0, 20020.0, 20037.0, 20014.0, 19995.0, 20003.0, 19996.0, 20016.0, 20036.0, 20016.0, 20020.0, 20013.0, 20029.0, 20064.0, 20072.0, 20045.0, 20049.0, 20042.0, 20021.0, 20014.0, 20025.0, 20033.0, 20028.0, 20037.0, 20006.0, 19985.0, 19965.0, 19961.0, 19973.0, 19995.0, 19997.0, 19994.0, 19973.0, 19970.0, 19977.0, 19979.0, 19993.0, 20015.0, 20019.0, 20038.0, 20053.0, 20054.0, 20062.0, 20029.0, 20015.0, 20020.0, 20007.0, 19994.0, 19989.0, 19978.0, 19992.0, 19986.0, 19998.0, 19998.0, 20020.0, 20031.0, 20036.0, 20055.0, 20024.0, 20006.0, 20000.0, 20009.0, 20025.0, 20023.0, 20027.0, 20038.0, 20036.0, 20024.0, 20044.0, 20040.0, 20041.0, 20024.0, 20018.0, 20037.0, 20047.0, 20045.0, 20050.0, 20046.0, 20075.0, 20057.0, 20037.0, 20028.0, 20014.0, 20017.0, 20035.0, 20043.0, 20036.0, 20028.0, 20034.0, 20071.0, 20003.0, 19994.0, 20021.0, 20026.0, 20027.0, 20021.0, 19994.0, 19995.0, 19986.0, 19991.0, 20010.0, 20002.0, 19979.0, 19975.0, 19977.0, 19991.0, 20005.0, 20015.0, 20024.0, 20029.0, 20029.0, 20032.0, 20029.0, 20015.0, 19996.0, 19975.0, 19959.0, 19962.0, 19979.0, 20010.0, 20004.0, 20001.0, 20013.0, 19981.0, 19982.0, 19979.0, 19973.0, 19968.0, 19980.0, 19988.0, 20022.0, 20063.0, 20074.0, 20085.0, 20035.0, 19988.0, 19948.0, 19950.0, 19958.0, 19970.0, 19974.0, 19971.0, 19978.0, 19994.0, 20008.0, 20004.0, 20015.0, 20007.0, 20007.0, 20009.0, 20013.0, 20029.0, 20062.0, 20079.0, 20090.0, 20098.0, 20071.0, 20044.0, 20029.0, 20032.0, 20026.0, 20032.0, 20057.0, 20082.0, 20090.0, 20106.0, 20130.0, 20092.0, 20068.0, 20042.0, 20052.0, 20006.0, 20017.0, 20059.0, 20084.0, 20094.0, 20067.0, 20042.0, 20027.0, 19987.0, 19973.0, 19985.0, 20001.0, 20009.0, 20019.0, 20015.0, 20030.0, 20042.0, 20042.0, 20023.0, 20026.0, 20020.0, 20004.0, 19990.0, 19996.0, 20007.0, 20015.0, 20058.0, 20117.0, 20087.0, 20083.0, 20082.0, 20071.0, 20039.0, 20043.0, 20044.0, 20030.0, 20044.0, 20030.0, 20031.0, 20025.0, 20006.0, 19996.0, 20016.0, 20042.0, 20058.0, 20052.0, 20036.0, 20028.0, 20003.0, 19996.0, 20007.0, 20020.0, 20033.0, 20048.0, 20057.0, 20059.0, 20050.0, 20042.0, 20025.0, 20007.0, 19991.0, 20008.0, 20008.0, 20014.0, 20012.0, 20005.0, 19998.0, 20001.0]
    },
    "slices": {}
  },
  "NumberOfVolumes": 264
}