{
  "AcquisitionMatrixPE": 104,
  "AcquisitionNumber": 1,
  "AcquisitionTime": "15:10:10.555000",
  "BandwidthPerPixelPhaseEncode": 16.578,
  "BaseResolution": 104,
  "BodyPartExamined": "BRAIN",
  "ConsistencyInfo": "N4_VE11C_LATEST_20160120",
  "ConversionSoftware": "dcm2niix",
  "ConversionSoftwareVersion": "v1.0.20190410  GCC6.3.0",
  "DerivedVendorReportedEchoSpacing": 0.000580009,
  "DeviceSerialNumber": "166018",
  "DwellTime": 2.1e-06,
  "EchoTime": 0.037,
  "EchoTrainLength": 104,
  "EffectiveEchoSpacing": 0.000580009,
  "FlipAngle": 68,
  "ImageComments": "Unaliased_MB6_PE3_LB",
  "ImageOrientationPatientDICOM": [0.997547, -0.0602919, -0.0355546, 0.0479156, 0.958503, -0.281028],
  "ImageType": [
    "ORIGINAL",
    "PRIMARY",
    "M",
    "MB",
    "ND",
    "MOSAIC"
],
  "ImagingFrequency": 123.191,
  "InPlanePhaseEncodingDirectionDICOM": "COL",
  "InstitutionAddress": "Washington_Place_6_NYC_NYC_US_10003",
  "InstitutionName": "NYU_Center_for_Brain_Imaging",
  "InstitutionalDepartmentName": "Department",
  "MRAcquisitionType": "2D",
  "MagneticFieldStrength": 3,
  "Manufacturer": "Siemens",
  "ManufacturersModelName": "Prisma",
  "Modality": "MR",
  "MultibandAccelerationFactor": 6,
  "PartialFourier": 1,
  "PatientPosition": "HFS",
  "PercentPhaseFOV": 100,
  "PhaseEncodingDirection": "j",
  "PhaseEncodingSteps": 104,
  "PhaseResolution": 1,
  "PixelBandwidth": 2290,
  "ProcedureStepDescription": "Investigators_Winawer",
  "ProtocolName": "task-sfprescaled_cmrr_mbepi_s6_2mm_66sl_PA_TR1.0",
  "PulseSequenceDetails": "%CustomerSeq%_cmrr_mbep2d_bold",
  "ReceiveCoilActiveElements": "HC1-7",
  "ReceiveCoilName": "HeadNeck_64",
  "ReconMatrixPE": 104,
  "RepetitionTime": 1,
  "SAR": 0.0599872,
  "ScanOptions": "FS",
  "ScanningSequence": "EP",
  "SequenceName": "epfid2d1_104",
  "SequenceVariant": "SK_SS",
  "SeriesDescription": "task-sfprescaled_cmrr_mbepi_s6_2mm_66sl_PA_TR1.0",
  "SeriesNumber": 30,
  "ShimSetting": [244, -12533, -8553, 292, -42, 159, -175, 26],
  "SliceThickness": 2,
  "SliceTiming": [0, 0.5325, 0.0875, 0.6225, 0.1775, 0.7125, 0.265, 0.8, 0.355, 0.89, 0.445, 0, 0.5325, 0.0875, 0.6225, 0.1775, 0.7125, 0.265, 0.8, 0.355, 0.89, 0.445, 0, 0.5325, 0.0875, 0.6225, 0.1775, 0.7125, 0.265, 0.8, 0.355, 0.89, 0.445, 0, 0.5325, 0.0875, 0.6225, 0.1775, 0.7125, 0.265, 0.8, 0.355, 0.89, 0.445, 0, 0.5325, 0.0875, 0.6225, 0.1775, 0.7125, 0.265, 0.8, 0.355, 0.89, 0.445, 0, 0.5325, 0.0875, 0.6225, 0.1775, 0.7125, 0.265, 0.8, 0.355, 0.89, 0.445],
  "SoftwareVersions": "syngo_MR_E11",
  "SpacingBetweenSlices": 2,
  "StationName": "AWP166018",
  "TaskName": "sfprescaled",
  "TotalReadoutTime": 0.0597409,
  "TxRefAmp": 201.638,
  "WipMemBlock": "e446e14a-dced-4007-87d9-d2781c55cea2||Sequence: R016 ve11c/master r/8780670; Nov 27 2017 15:05:12 by eja",
  "dcmmeta_affine": [
    [-1.9950947761535645, 0.09583121538162231, -0.10204588621854782, 113.34072875976562],
    [0.12058382481336594, 1.9170050621032715, -0.5572711229324341, -73.6729507446289],
    [-0.07110926508903503, 0.5620568990707397, 1.9180811643600464, -78.0055923461914],
    [0.0, 0.0, 0.0, 1.0]
],
  "dcmmeta_reorient_transform": [
    [0.0, -1.0, 0.0, 103.0],
    [1.0, 0.0, 0.0, 0.0],
    [0.0, 0.0, 1.0, 0.0],
    [0.0, 0.0, 0.0, 1.0]
],
  "dcmmeta_shape": [104, 104, 66, 264],
  "dcmmeta_slice_dim": 2,
  "dcmmeta_version": 0.6,
  "global": {
    "const": {
      "AccessionNumber": "k5onhzs7",
      "AcquisitionMatrix": [104, 0, 0, 104],
      "AngioFlag": "N",
      "BitsAllocated": 16,
      "BitsStored": 16,
      "BodyPartExamined": "BRAIN",
      "Columns": 936,
      "EchoNumbers": 1,
      "EchoTime": 37.0,
      "EchoTrainLength": 104,
      "FlipAngle": 68.0,
      "HighBit": 15,
      "ImageOrientationPatient": [0.99754736907445, -0.0602919119506, -0.0355546312874, 0.04791560694718, 0.95850253404615, -0.2810284448913],
      "ImagePositionPatient": [-993.03653895377, -871.08980635917, 243.28338726346],
      "ImageType": [
        "ORIGINAL",
        "PRIMARY",
        "M",
        "MB",
        "ND",
        "MOSAIC"
],
      "ImagedNucleus": "1H",
      "ImagingFrequency": 123.190782,
      "InPlanePhaseEncodingDirection": "COL",
      "MRAcquisitionType": "2D",
      "MagneticFieldStrength": 3.0,
      "Manufacturer": "SIEMENS",
      "ManufacturerModelName": "Prisma",
      "Modality": "MR",
      "NumberOfAverages": 1.0,
      "NumberOfPhaseEncodingSteps": 104,
      "PercentPhaseFieldOfView": 100.0,
      "PercentSampling": 100.0,
      "PerformedProcedureStepStartTime": "140037.811000",
      "PhotometricInterpretation": "MONOCHROME2",
      "PixelBandwidth": 2290.0,
      "PixelRepresentation": 0,
      "PixelSpacing": [2.0, 2.0],
      "ProtocolName": "task-sfprescaled_cmrr_mbepi_s6_2mm_66sl_PA_TR1.0",
      "RepetitionTime": 1000.0,
      "Rows": 936,
      "SAR": 0.05998716687588,
      "SamplesPerPixel": 1,
      "ScanOptions": "FS",
      "ScanningSequence": "EP",
      "SequenceName": "epfid2d1_104",
      "SequenceVariant": [
        "SK",
        "SS"
],
      "SeriesDescription": "task-sfprescaled_cmrr_mbepi_s6_2mm_66sl_PA_TR1.0",
      "SeriesNumber": 30,
      "SeriesTime": "151110.643000",
      "SliceLocation": -60.065602895364,
      "SliceThickness": 2.0,
      "SmallestImagePixelValue": 0,
      "SoftwareVersions": "syngo MR E11",
      "SpacingBetweenSlices": 1.9999999262666,
      "SpecificCharacterSet": "ISO_IR 100",
      "StudyID": "1",
      "StudyTime": "140037.749000",
      "TransmitCoilName": "Body",
      "VariableFlipAngleFlag": "N",
      "WindowCenterWidthExplanation": "Algo1",
      "dBdt": 0.0},
    "slices": {}
  },
  "time": {
    "samples": {
      "AcquisitionNumber": [1, 2, 3, 4, 5, 6, 7, 8, 9, 10, 11, 12, 13, 14, 15, 16, 17, 18, 19, 20, 21, 22, 23, 24, 25, 26, 27, 28, 29, 30, 31, 32, 33, 34, 35, 36, 37, 38, 39, 40, 41, 42, 43, 44, 45, 46, 47, 48, 49, 50, 51, 52, 53, 54, 55, 56, 57, 58, 59, 60, 61, 62, 63, 64, 65, 66, 67, 68, 69, 70, 71, 72, 73, 74, 75, 76, 77, 78, 79, 80, 81, 82, 83, 84, 85, 86, 87, 88, 89, 90, 91, 92, 93, 94, 95, 96, 97, 98, 99, 100, 101, 102, 103, 104, 105, 106, 107, 108, 109, 110, 111, 112, 113, 114, 115, 116, 117, 118, 119, 120, 121, 122, 123, 124, 125, 126, 127, 128, 129, 130, 131, 132, 133, 134, 135, 136, 137, 138, 139, 140, 141, 142, 143, 144, 145, 146, 147, 148, 149, 150, 151, 152, 153, 154, 155, 156, 157, 158, 159, 160, 161, 162, 163, 164, 165, 166, 167, 168, 169, 170, 171, 172, 173, 174, 175, 176, 177, 178, 179, 180, 181, 182, 183, 184, 185, 186, 187, 188, 189, 190, 191, 192, 193, 194, 195, 196, 197, 198, 199, 200, 201, 202, 203, 204, 205, 206, 207, 208, 209, 210, 211, 212, 213, 214, 215, 216, 217, 218, 219, 220, 221, 222, 223, 224, 225, 226, 227, 228, 229, 230, 231, 232, 233, 234, 235, 236, 237, 238, 239, 240, 241, 242, 243, 244, 245, 246, 247, 248, 249, 250, 251, 252, 253, 254, 255, 256, 257, 258, 259, 260, 261, 262, 263, 264],
      "AcquisitionTime": ["151010.555000", "151011.555000", "151012.555000", "151013.555000", "151014.555000", "151015.555000", "151016.555000", "151017.555000", "151018.555000", "151019.555000", "151020.555000", "151021.555000", "151022.555000", "151023.555000", "151024.555000", "151025.555000", "151026.555000", "151027.555000", "151028.555000", "151029.555000", "151030.555000", "151031.555000", "151032.555000", "151033.555000", "151034.555000", "151035.555000", "151036.555000", "151037.555000", "151038.555000", "151039.555000", "151040.555000", "151041.555000", "151042.555000", "151043.555000", "151044.555000", "151045.555000", "151046.555000", "151047.555000", "151048.555000", "151049.555000", "151050.555000", "151051.555000", "151052.555000", "151053.555000", "151054.555000", "151055.555000", "151056.555000", "151057.555000", "151058.555000", "151059.555000", "151100.555000", "151101.555000", "151102.555000", "151103.555000", "151104.555000", "151105.555000", "151106.555000", "151107.555000", "151108.555000", "151109.555000", "151110.555000", "151111.555000", "151112.555000", "151113.555000", "151114.555000", "151115.555000", "151116.555000", "151117.555000", "151118.555000", "151119.555000", "151120.555000", "151121.555000", "151122.555000", "151123.555000", "151124.555000", "151125.555000", "151126.555000", "151127.555000", "151128.555000", "151129.555000", "151130.555000", "151131.555000", "151132.555000", "151133.555000", "151134.555000", "151135.555000", "151136.555000", "151137.555000", "151138.555000", "151139.555000", "151140.555000", "151141.555000", "151142.555000", "151143.555000", "151144.555000", "151145.555000", "151146.555000", "151147.555000", "151148.555000", "151149.555000", "151150.555000", "151151.555000", "151152.555000", "151153.555000", "151154.555000", "151155.555000", "151156.555000", "151157.555000", "151158.555000", "151159.555000", "151200.555000", "151201.555000", "151202.555000", "151203.555000", "151204.555000", "151205.555000", "151206.555000", "151207.555000", "151208.555000", "151209.555000", "151210.555000", "151211.555000", "151212.555000", "151213.555000", "151214.555000", "151215.555000", "151216.555000", "151217.555000", "151218.555000", "151219.555000", "151220.555000", "151221.555000", "151222.555000", "151223.555000", "151224.555000", "151225.555000", "151226.555000", "151227.555000", "151228.555000", "151229.555000", "151230.555000", "151231.555000", "151232.555000", "151233.555000", "151234.555000", "151235.555000", "151236.555000", "151237.555000", "151238.555000", "151239.555000", "151240.555000", "151241.555000", "151242.555000", "151243.555000", "151244.555000", "151245.555000", "151246.555000", "151247.555000", "151248.555000", "151249.555000", "151250.555000", "151251.555000", "151252.555000", "151253.555000", "151254.555000", "151255.555000", "151256.555000", "151257.555000", "151258.555000", "151259.555000", "151300.555000", "151301.555000", "151302.555000", "151303.555000", "151304.555000", "151305.555000", "151306.555000", "151307.555000", "151308.555000", "151309.555000", "151310.555000", "151311.555000", "151312.555000", "151313.555000", "151314.555000", "151315.555000", "151316.555000", "151317.555000", "151318.555000", "151319.555000", "151320.555000", "151321.555000", "151322.555000", "151323.555000", "151324.555000", "151325.555000", "151326.555000", "151327.555000", "151328.555000", "151329.555000", "151330.555000", "151331.555000", "151332.555000", "151333.555000", "151334.555000", "151335.555000", "151336.555000", "151337.555000", "151338.555000", "151339.555000", "151340.555000", "151341.555000", "151342.555000", "151343.555000", "151344.555000", "151345.555000", "151346.555000", "151347.555000", "151348.555000", "151349.555000", "151350.555000", "151351.555000", "151352.555000", "151353.555000", "151354.555000", "151355.555000", "151356.555000", "151357.555000", "151358.555000", "151359.555000", "151400.555000", "151401.555000", "151402.555000", "151403.555000", "151404.555000", "151405.555000", "151406.555000", "151407.555000", "151408.555000", "151409.555000", "151410.555000", "151411.555000", "151412.555000", "151413.555000", "151414.555000", "151415.555000", "151416.555000", "151417.555000", "151418.555000", "151419.555000", "151420.555000", "151421.555000", "151422.555000", "151423.555000", "151424.555000", "151425.555000", "151426.555000", "151427.555000", "151428.555000", "151429.555000", "151430.555000", "151431.555000", "151432.555000", "151433.555000"],
      "ContentTime": ["151110.646000", "151110.649000", "151110.652000", "151110.655000", "151110.658000", "151115.612000", "151115.615000", "151115.618000", "151115.632000", "151115.638000", "151115.641000", "151115.664000", "151120.612000", "151120.615000", "151120.617000", "151120.620000", "151120.623000", "151120.626000", "151120.629000", "151120.632000", "151125.613000", "151125.616000", "151125.619000", "151125.622000", "151125.626000", "151125.629000", "151125.632000", "151130.612000", "151130.615000", "151130.618000", "151130.620000", "151130.623000", "151130.626000", "151130.629000", "151135.612000", "151135.615000", "151135.618000", "151135.621000", "151135.623000", "151135.626000", "151135.637000", "151140.613000", "151140.616000", "151140.619000", "151140.621000", "151140.624000", "151140.627000", "151140.630000", "151145.612000", "151145.615000", "151145.618000", "151145.620000", "151145.623000", "151145.626000", "151145.629000", "151150.612000", "151150.615000", "151150.618000", "151150.620000", "151150.623000", "151150.626000", "151150.629000", "151155.612000", "151155.615000", "151155.618000", "151155.620000", "151155.623000", "151155.626000", "151155.629000", "151200.613000", "151200.616000", "151200.619000", "151200.621000", "151200.624000", "151200.627000", "151200.630000", "151205.612000", "151205.615000", "151205.618000", "151205.620000", "151205.623000", "151205.626000", "151205.629000", "151210.612000", "151210.615000", "151210.618000", "151210.621000", "151210.623000", "151210.626000", "151210.629000", "151215.613000", "151215.616000", "151215.619000", "151215.622000", "151215.624000", "151215.627000", "151215.630000", "151220.612000", "151220.615000", "151220.618000", "151220.621000", "151220.623000", "151220.626000", "151220.629000", "151225.612000", "151225.615000", "151225.617000", "151225.620000", "151225.623000", "151225.626000", "151225.629000", "151225.632000", "151230.612000", "151230.615000", "151230.618000", "151230.620000", "151230.623000", "151230.626000", "151230.629000", "151235.613000", "151235.616000", "151235.619000", "151235.621000", "151235.624000", "151235.627000", "151235.630000", "151240.612000", "151240.615000", "151240.618000", "151240.620000", "151240.623000", "151240.626000", "151240.629000", "151245.612000", "151245.615000", "151245.618000", "151245.621000", "151245.623000", "151245.626000", "151245.629000", "151250.613000", "151250.616000", "151250.619000", "151250.621000", "151250.624000", "151250.627000", "151250.630000", "151255.623000", "151255.626000", "151255.629000", "151255.632000", "151255.635000", "151255.637000", "151255.640000", "151300.612000", "151300.615000", "151300.618000", "151300.620000", "151300.623000", "151300.626000", "151300.629000", "151305.612000", "151305.615000", "151305.618000", "151305.621000", "151305.624000", "151305.627000", "151305.630000", "151310.613000", "151310.616000", "151310.619000", "151310.622000", "151310.625000", "151310.627000", "151310.630000", "151315.612000", "151315.615000", "151315.618000", "151315.620000", "151315.623000", "151315.626000", "151315.629000", "151315.632000", "151320.612000", "151320.615000", "151320.618000", "151320.621000", "151320.623000", "151320.626000", "151325.613000", "151325.616000", "151325.619000", "151325.622000", "151325.624000", "151330.612000", "151330.615000", "151330.618000", "151330.621000", "151330.623000", "151335.612000", "151335.615000", "151335.618000", "151335.621000", "151335.623000", "151340.612000", "151340.615000", "151340.618000", "151340.621000", "151340.623000", "151345.613000", "151345.616000", "151345.619000", "151345.622000", "151345.624000", "151350.612000", "151350.615000", "151350.618000", "151350.621000", "151350.623000", "151355.612000", "151355.615000", "151355.618000", "151355.621000", "151355.623000", "151400.613000", "151400.616000", "151400.619000", "151400.622000", "151400.624000", "151405.612000", "151405.615000", "151405.618000", "151405.621000", "151405.623000", "151410.612000", "151410.615000", "151410.618000", "151410.621000", "151410.623000", "151415.612000", "151415.615000", "151415.618000", "151415.621000", "151415.624000", "151420.613000", "151420.616000", "151420.619000", "151420.622000", "151420.624000", "151425.612000", "151425.615000", "151425.618000", "151425.621000", "151425.623000", "151430.612000", "151430.615000", "151430.618000", "151430.621000", "151430.623000", "151434.983000", "151434.986000", "151434.989000", "151434.992000", "151434.995000"],
      "InstanceCreationTime": ["151110.646000", "151110.649000", "151110.652000", "151110.655000", "151110.658000", "151115.612000", "151115.615000", "151115.618000", "151115.632000", "151115.638000", "151115.641000", "151115.664000", "151120.612000", "151120.615000", "151120.617000", "151120.620000", "151120.623000", "151120.626000", "151120.629000", "151120.632000", "151125.613000", "151125.616000", "151125.619000", "151125.622000", "151125.626000", "151125.629000", "151125.632000", "151130.612000", "151130.615000", "151130.618000", "151130.620000", "151130.623000", "151130.626000", "151130.629000", "151135.612000", "151135.615000", "151135.618000", "151135.621000", "151135.623000", "151135.626000", "151135.637000", "151140.613000", "151140.616000", "151140.619000", "151140.621000", "151140.624000", "151140.627000", "151140.630000", "151145.612000", "151145.615000", "151145.618000", "151145.620000", "151145.623000", "151145.626000", "151145.629000", "151150.612000", "151150.615000", "151150.618000", "151150.620000", "151150.623000", "151150.626000", "151150.629000", "151155.612000", "151155.615000", "151155.618000", "151155.620000", "151155.623000", "151155.626000", "151155.629000", "151200.613000", "151200.616000", "151200.619000", "151200.621000", "151200.624000", "151200.627000", "151200.630000", "151205.612000", "151205.615000", "151205.618000", "151205.620000", "151205.623000", "151205.626000", "151205.629000", "151210.612000", "151210.615000", "151210.618000", "151210.621000", "151210.623000", "151210.626000", "151210.629000", "151215.613000", "151215.616000", "151215.619000", "151215.622000", "151215.624000", "151215.627000", "151215.630000", "151220.612000", "151220.615000", "151220.618000", "151220.621000", "151220.623000", "151220.626000", "151220.629000", "151225.612000", "151225.615000", "151225.617000", "151225.620000", "151225.623000", "151225.626000", "151225.629000", "151225.632000", "151230.612000", "151230.615000", "151230.618000", "151230.620000", "151230.623000", "151230.626000", "151230.629000", "151235.613000", "151235.616000", "151235.619000", "151235.621000", "151235.624000", "151235.627000", "151235.630000", "151240.612000", "151240.615000", "151240.618000", "151240.620000", "151240.623000", "151240.626000", "151240.629000", "151245.612000", "151245.615000", "151245.618000", "151245.621000", "151245.623000", "151245.626000", "151245.629000", "151250.613000", "151250.616000", "151250.619000", "151250.621000", "151250.624000", "151250.627000", "151250.630000", "151255.623000", "151255.626000", "151255.629000", "151255.632000", "151255.635000", "151255.637000", "151255.640000", "151300.612000", "151300.615000", "151300.618000", "151300.620000", "151300.623000", "151300.626000", "151300.629000", "151305.612000", "151305.615000", "151305.618000", "151305.621000", "151305.624000", "151305.627000", "151305.630000", "151310.613000", "151310.616000", "151310.619000", "151310.622000", "151310.625000", "151310.627000", "151310.630000", "151315.612000", "151315.615000", "151315.618000", "151315.620000", "151315.623000", "151315.626000", "151315.629000", "151315.632000", "151320.612000", "151320.615000", "151320.618000", "151320.621000", "151320.623000", "151320.626000", "151325.613000", "151325.616000", "151325.619000", "151325.622000", "151325.624000", "151330.612000", "151330.615000", "151330.618000", "151330.621000", "151330.623000", "151335.612000", "151335.615000", "151335.618000", "151335.621000", "151335.623000", "151340.612000", "151340.615000", "151340.618000", "151340.621000", "151340.623000", "151345.613000", "151345.616000", "151345.619000", "151345.622000", "151345.624000", "151350.612000", "151350.615000", "151350.618000", "151350.621000", "151350.623000", "151355.612000", "151355.615000", "151355.618000", "151355.621000", "151355.623000", "151400.613000", "151400.616000", "151400.619000", "151400.622000", "151400.624000", "151405.612000", "151405.615000", "151405.618000", "151405.621000", "151405.623000", "151410.612000", "151410.615000", "151410.618000", "151410.621000", "151410.623000", "151415.612000", "151415.615000", "151415.618000", "151415.621000", "151415.624000", "151420.613000", "151420.616000", "151420.619000", "151420.622000", "151420.624000", "151425.612000", "151425.615000", "151425.618000", "151425.621000", "151425.623000", "151430.612000", "151430.615000", "151430.618000", "151430.621000", "151430.623000", "151434.983000", "151434.986000", "151434.989000", "151434.992000", "151434.995000"],
      "InstanceNumber": [1, 2, 3, 4, 5, 6, 7, 8, 9, 10, 11, 12, 13, 14, 15, 16, 17, 18, 19, 20, 21, 22, 23, 24, 25, 26, 27, 28, 29, 30, 31, 32, 33, 34, 35, 36, 37, 38, 39, 40, 41, 42, 43, 44, 45, 46, 47, 48, 49, 50, 51, 52, 53, 54, 55, 56, 57, 58, 59, 60, 61, 62, 63, 64, 65, 66, 67, 68, 69, 70, 71, 72, 73, 74, 75, 76, 77, 78, 79, 80, 81, 82, 83, 84, 85, 86, 87, 88, 89, 90, 91, 92, 93, 94, 95, 96, 97, 98, 99, 100, 101, 102, 103, 104, 105, 106, 107, 108, 109, 110, 111, 112, 113, 114, 115, 116, 117, 118, 119, 120, 121, 122, 123, 124, 125, 126, 127, 128, 129, 130, 131, 132, 133, 134, 135, 136, 137, 138, 139, 140, 141, 142, 143, 144, 145, 146, 147, 148, 149, 150, 151, 152, 153, 154, 155, 156, 157, 158, 159, 160, 161, 162, 163, 164, 165, 166, 167, 168, 169, 170, 171, 172, 173, 174, 175, 176, 177, 178, 179, 180, 181, 182, 183, 184, 185, 186, 187, 188, 189, 190, 191, 192, 193, 194, 195, 196, 197, 198, 199, 200, 201, 202, 203, 204, 205, 206, 207, 208, 209, 210, 211, 212, 213, 214, 215, 216, 217, 218, 219, 220, 221, 222, 223, 224, 225, 226, 227, 228, 229, 230, 231, 232, 233, 234, 235, 236, 237, 238, 239, 240, 241, 242, 243, 244, 245, 246, 247, 248, 249, 250, 251, 252, 253, 254, 255, 256, 257, 258, 259, 260, 261, 262, 263, 264],
      "LargestImagePixelValue": [37128, 35460, 34296, 37039, 35325, 34590, 33282, 39126, 36367, 33687, 37782, 33328, 40754, 37069, 33739, 42190, 37520, 35923, 33635, 38763, 35703, 34486, 34118, 33908, 33631, 38378, 35427, 34417, 34343, 33981, 33772, 34572, 34954, 34382, 34182, 34679, 33909, 33899, 35020, 35433, 35771, 35639, 36115, 36376, 36141, 35807, 36372, 36630, 33862, 37158, 37684, 37541, 35173, 33957, 35215, 35784, 35866, 35845, 35871, 34489, 38004, 34592, 34027, 35284, 34962, 35590, 35959, 35930, 36326, 36298, 36091, 36041, 35625, 35755, 35623, 35899, 35872, 35108, 35460, 35858, 35463, 35841, 35841, 35438, 35575, 35644, 34954, 35690, 35601, 35437, 35212, 35436, 35483, 35431, 35759, 35580, 35409, 35903, 35459, 35425, 35945, 34814, 35370, 34710, 35249, 34893, 36395, 35456, 35170, 35314, 35483, 35378, 34585, 34713, 34512, 34108, 34228, 37488, 36024, 36105, 35429, 36314, 36069, 35109, 35613, 35911, 35359, 35791, 35561, 35866, 35940, 35957, 35828, 35537, 35054, 35935, 34425, 35404, 37598, 34757, 40808, 37399, 36961, 35691, 34947, 34923, 34882, 34975, 34989, 35107, 35358, 35424, 35634, 35766, 35562, 35855, 35794, 35833, 35563, 35464, 35539, 35187, 35223, 35372, 35526, 34909, 34399, 38716, 36065, 35949, 35523, 35175, 35161, 35300, 35210, 35415, 35585, 35524, 35339, 35312, 35583, 35471, 35412, 35249, 35799, 36154, 36012, 35672, 35639, 35569, 35308, 35751, 35580, 34875, 35785, 35634, 35723, 35366, 35478, 35487, 35204, 34901, 34821, 35452, 34822, 35031, 35316, 35005, 35053, 35127, 34749, 35101, 35735, 35262, 35282, 35454, 35141, 34939, 35162, 35477, 35409, 35506, 35085, 35194, 34809, 34702, 34965, 34939, 35433, 35386, 35063, 35069, 35472, 35738, 35220, 35172, 35257, 35290, 35612, 35181, 35517, 35393, 35570, 34949, 35187, 34812, 35013, 34706, 40166, 37429, 35494, 35529, 35056, 35649, 35491, 35246, 35321, 35467, 35357, 34915, 35005, 35370, 35006, 35662],
      "WindowCenter": [9513.0, 9462.0, 9433.0, 9459.0, 9434.0, 9434.0, 9425.0, 9480.0, 9451.0, 9423.0, 9471.0, 9422.0, 9487.0, 9451.0, 9414.0, 9487.0, 9454.0, 9446.0, 9424.0, 9469.0, 9440.0, 9419.0, 9412.0, 9406.0, 9417.0, 9477.0, 9464.0, 9457.0, 9441.0, 9433.0, 9427.0, 9438.0, 9445.0, 9441.0, 9451.0, 9450.0, 9427.0, 9424.0, 9419.0, 9430.0, 9437.0, 9456.0, 9478.0, 9482.0, 9483.0, 9460.0, 9455.0, 9452.0, 9417.0, 9442.0, 9455.0, 9449.0, 9424.0, 9412.0, 9423.0, 9439.0, 9456.0, 9465.0, 9465.0, 9447.0, 9471.0, 9421.0, 9412.0, 9425.0, 9426.0, 9429.0, 9438.0, 9440.0, 9451.0, 9445.0, 9443.0, 9445.0, 9438.0, 9437.0, 9439.0, 9446.0, 9447.0, 9450.0, 9450.0, 9449.0, 9440.0, 9446.0, 9445.0, 9438.0, 9440.0, 9440.0, 9434.0, 9445.0, 9445.0, 9446.0, 9447.0, 9454.0, 9462.0, 9457.0, 9464.0, 9475.0, 9474.0, 9472.0, 9466.0, 9458.0, 9463.0, 9452.0, 9472.0, 9470.0, 9469.0, 9477.0, 9481.0, 9464.0, 9451.0, 9450.0, 9440.0, 9439.0, 9427.0, 9430.0, 9436.0, 9422.0, 9438.0, 9463.0, 9453.0, 9454.0, 9455.0, 9453.0, 9450.0, 9440.0, 9438.0, 9436.0, 9440.0, 9452.0, 9446.0, 9452.0, 9446.0, 9445.0, 9444.0, 9445.0, 9449.0, 9459.0, 9451.0, 9471.0, 9481.0, 9450.0, 9493.0, 9461.0, 9449.0, 9442.0, 9448.0, 9459.0, 9466.0, 9462.0, 9455.0, 9451.0, 9443.0, 9449.0, 9455.0, 9463.0, 9467.0, 9465.0, 9455.0, 9441.0, 9432.0, 9430.0, 9423.0, 9422.0, 9424.0, 9430.0, 9437.0, 9433.0, 9426.0, 9466.0, 9444.0, 9438.0, 9440.0, 9440.0, 9440.0, 9440.0, 9441.0, 9449.0, 9448.0, 9455.0, 9451.0, 9450.0, 9448.0, 9454.0, 9448.0, 9455.0, 9462.0, 9461.0, 9469.0, 9463.0, 9465.0, 9466.0, 9459.0, 9464.0, 9457.0, 9459.0, 9463.0, 9448.0, 9448.0, 9441.0, 9448.0, 9448.0, 9448.0, 9441.0, 9431.0, 9445.0, 9431.0, 9431.0, 9439.0, 9439.0, 9440.0, 9434.0, 9435.0, 9441.0, 9447.0, 9449.0, 9440.0, 9440.0, 9441.0, 9433.0, 9438.0, 9436.0, 9436.0, 9438.0, 9446.0, 9450.0, 9452.0, 9445.0, 9445.0, 9444.0, 9449.0, 9449.0, 9449.0, 9449.0, 9439.0, 9442.0, 9430.0, 9423.0, 9424.0, 9425.0, 9439.0, 9439.0, 9440.0, 9447.0, 9441.0, 9440.0, 9441.0, 9441.0, 9441.0, 9435.0, 9493.0, 9463.0, 9446.0, 9452.0, 9438.0, 9429.0, 9428.0, 9423.0, 9421.0, 9428.0, 9429.0, 9416.0, 9416.0, 9430.0, 9425.0, 9428.0],
      "WindowWidth": [20250.0, 20124.0, 20064.0, 20103.0, 20051.0, 20051.0, 20042.0, 20131.0, 20076.0, 20034.0, 20121.0, 20030.0, 20151.0, 20082.0, 20015.0, 20143.0, 20084.0, 20074.0, 20040.0, 20120.0, 20068.0, 20027.0, 20012.0, 20004.0, 20029.0, 20138.0, 20122.0, 20115.0, 20083.0, 20065.0, 20055.0, 20073.0, 20087.0, 20085.0, 20110.0, 20108.0, 20057.0, 20047.0, 20026.0, 20043.0, 20061.0, 20103.0, 20150.0, 20162.0, 20165.0, 20113.0, 20092.0, 20084.0, 20027.0, 20064.0, 20093.0, 20080.0, 20031.0, 20005.0, 20023.0, 20064.0, 20103.0, 20124.0, 20125.0, 20095.0, 20122.0, 20025.0, 20008.0, 20034.0, 20038.0, 20042.0, 20062.0, 20066.0, 20084.0, 20072.0, 20067.0, 20070.0, 20056.0, 20053.0, 20060.0, 20074.0, 20079.0, 20090.0, 20090.0, 20084.0, 20063.0, 20074.0, 20071.0, 20058.0, 20063.0, 20064.0, 20054.0, 20069.0, 20068.0, 20070.0, 20073.0, 20087.0, 20107.0, 20099.0, 20115.0, 20141.0, 20139.0, 20134.0, 20123.0, 20104.0, 20111.0, 20094.0, 20135.0, 20137.0, 20134.0, 20149.0, 20152.0, 20113.0, 20088.0, 20086.0, 20061.0, 20060.0, 20042.0, 20053.0, 20067.0, 20036.0, 20074.0, 20110.0, 20092.0, 20097.0, 20095.0, 20089.0, 20082.0, 20067.0, 20059.0, 20052.0, 20065.0, 20084.0, 20073.0, 20085.0, 20073.0, 20071.0, 20069.0, 20071.0, 20082.0, 20099.0, 20095.0, 20132.0, 20145.0, 20088.0, 20161.0, 20093.0, 20072.0, 20063.0, 20086.0, 20113.0, 20127.0, 20123.0, 20108.0, 20094.0, 20077.0, 20086.0, 20099.0, 20116.0, 20128.0, 20122.0, 20096.0, 20067.0, 20048.0, 20039.0, 20027.0, 20024.0, 20028.0, 20040.0, 20056.0, 20051.0, 20039.0, 20108.0, 20071.0, 20057.0, 20064.0, 20065.0, 20067.0, 20067.0, 20069.0, 20088.0, 20083.0, 20098.0, 20093.0, 20089.0, 20082.0, 20093.0, 20080.0, 20096.0, 20111.0, 20105.0, 20122.0, 20112.0, 20120.0, 20121.0, 20109.0, 20116.0, 20101.0, 20110.0, 20111.0, 20080.0, 20080.0, 20068.0, 20079.0, 20082.0, 20078.0, 20063.0, 20041.0, 20069.0, 20040.0, 20037.0, 20056.0, 20059.0, 20063.0, 20054.0, 20057.0, 20067.0, 20077.0, 20082.0, 20063.0, 20063.0, 20064.0, 20049.0, 20055.0, 20045.0, 20044.0, 20050.0, 20071.0, 20089.0, 20099.0, 20084.0, 20082.0, 20078.0, 20086.0, 20085.0, 20086.0, 20082.0, 20058.0, 20054.0, 20033.0, 20021.0, 20028.0, 20031.0, 20059.0, 20062.0, 20065.0, 20079.0, 20066.0, 20063.0, 20065.0, 20063.0, 20063.0, 20056.0, 20154.0, 20098.0, 20070.0, 20080.0, 20048.0, 20027.0, 20026.0, 20019.0, 20014.0, 20027.0, 20032.0, 20008.0, 20009.0, 20035.0, 20027.0, 20027.0]
    },
    "slices": {}
  },
  "NumberOfVolumes": 264
}