{
  "AcquisitionMatrixPE": 104,
  "AcquisitionNumber": 1,
  "AcquisitionTime": "15:04:53.542500",
  "BandwidthPerPixelPhaseEncode": 16.578,
  "BaseResolution": 104,
  "BodyPartExamined": "BRAIN",
  "ConsistencyInfo": "N4_VE11C_LATEST_20160120",
  "ConversionSoftware": "dcm2niix",
  "ConversionSoftwareVersion": "v1.0.20190410  GCC6.3.0",
  "DerivedVendorReportedEchoSpacing": 0.000580009,
  "DeviceSerialNumber": "166018",
  "DwellTime": 2.1e-06,
  "EchoTime": 0.037,
  "EchoTrainLength": 104,
  "EffectiveEchoSpacing": 0.000580009,
  "FlipAngle": 68,
  "ImageComments": "Unaliased_MB6_PE3_LB",
  "ImageOrientationPatientDICOM": [0.997547, -0.0602919, -0.0355546, 0.0479156, 0.958503, -0.281028],
  "ImageType": [
    "ORIGINAL",
    "PRIMARY",
    "M",
    "MB",
    "ND",
    "MOSAIC"
],
  "ImagingFrequency": 123.191,
  "InPlanePhaseEncodingDirectionDICOM": "COL",
  "InstitutionAddress": "Washington_Place_6_NYC_NYC_US_10003",
  "InstitutionName": "NYU_Center_for_Brain_Imaging",
  "InstitutionalDepartmentName": "Department",
  "MRAcquisitionType": "2D",
  "MagneticFieldStrength": 3,
  "Manufacturer": "Siemens",
  "ManufacturersModelName": "Prisma",
  "Modality": "MR",
  "MultibandAccelerationFactor": 6,
  "PartialFourier": 1,
  "PatientPosition": "HFS",
  "PercentPhaseFOV": 100,
  "PhaseEncodingDirection": "j",
  "PhaseEncodingSteps": 104,
  "PhaseResolution": 1,
  "PixelBandwidth": 2290,
  "ProcedureStepDescription": "Investigators_Winawer",
  "ProtocolName": "task-sfprescaled_cmrr_mbepi_s6_2mm_66sl_PA_TR1.0",
  "PulseSequenceDetails": "%CustomerSeq%_cmrr_mbep2d_bold",
  "ReceiveCoilActiveElements": "HC1-7",
  "ReceiveCoilName": "HeadNeck_64",
  "ReconMatrixPE": 104,
  "RepetitionTime": 1,
  "SAR": 0.0599872,
  "ScanOptions": "FS",
  "ScanningSequence": "EP",
  "SequenceName": "epfid2d1_104",
  "SequenceVariant": "SK_SS",
  "SeriesDescription": "task-sfprescaled_cmrr_mbepi_s6_2mm_66sl_PA_TR1.0",
  "SeriesNumber": 28,
  "ShimSetting": [244, -12533, -8553, 292, -42, 159, -175, 26],
  "SliceThickness": 2,
  "SliceTiming": [0, 0.535, 0.09, 0.6225, 0.1775, 0.7125, 0.2675, 0.8025, 0.3575, 0.89, 0.445, 0, 0.535, 0.09, 0.6225, 0.1775, 0.7125, 0.2675, 0.8025, 0.3575, 0.89, 0.445, 0, 0.535, 0.09, 0.6225, 0.1775, 0.7125, 0.2675, 0.8025, 0.3575, 0.89, 0.445, 0, 0.535, 0.09, 0.6225, 0.1775, 0.7125, 0.2675, 0.8025, 0.3575, 0.89, 0.445, 0, 0.535, 0.09, 0.6225, 0.1775, 0.7125, 0.2675, 0.8025, 0.3575, 0.89, 0.445, 0, 0.535, 0.09, 0.6225, 0.1775, 0.7125, 0.2675, 0.8025, 0.3575, 0.89, 0.445],
  "SoftwareVersions": "syngo_MR_E11",
  "SpacingBetweenSlices": 2,
  "StationName": "AWP166018",
  "TaskName": "sfprescaled",
  "TotalReadoutTime": 0.0597409,
  "TxRefAmp": 201.638,
  "WipMemBlock": "e446e14a-dced-4007-87d9-d2781c55cea2||Sequence: R016 ve11c/master r/8780670; Nov 27 2017 15:05:12 by eja",
  "dcmmeta_affine": [
    [-1.9950947761535645, 0.09583121538162231, -0.10204588621854782, 113.34072875976562],
    [0.12058382481336594, 1.9170050621032715, -0.5572711229324341, -73.6729507446289],
    [-0.07110926508903503, 0.5620568990707397, 1.9180811643600464, -78.0055923461914],
    [0.0, 0.0, 0.0, 1.0]
],
  "dcmmeta_reorient_transform": [
    [0.0, -1.0, 0.0, 103.0],
    [1.0, 0.0, 0.0, 0.0],
    [0.0, 0.0, 1.0, 0.0],
    [0.0, 0.0, 0.0, 1.0]
],
  "dcmmeta_shape": [104, 104, 66, 264],
  "dcmmeta_slice_dim": 2,
  "dcmmeta_version": 0.6,
  "global": {
    "const": {
      "AccessionNumber": "k5onhzs7",
      "AcquisitionMatrix": [104, 0, 0, 104],
      "AngioFlag": "N",
      "BitsAllocated": 16,
      "BitsStored": 16,
      "BodyPartExamined": "BRAIN",
      "Columns": 936,
      "EchoNumbers": 1,
      "EchoTime": 37.0,
      "EchoTrainLength": 104,
      "FlipAngle": 68.0,
      "HighBit": 15,
      "ImageOrientationPatient": [0.99754736907445, -0.0602919119506, -0.0355546312874, 0.04791560694718, 0.95850253404615, -0.2810284448913],
      "ImagePositionPatient": [-993.03653895377, -871.08980635917, 243.28338726346],
      "ImageType": [
        "ORIGINAL",
        "PRIMARY",
        "M",
        "MB",
        "ND",
        "MOSAIC"
],
      "ImagedNucleus": "1H",
      "ImagingFrequency": 123.190782,
      "InPlanePhaseEncodingDirection": "COL",
      "MRAcquisitionType": "2D",
      "MagneticFieldStrength": 3.0,
      "Manufacturer": "SIEMENS",
      "ManufacturerModelName": "Prisma",
      "Modality": "MR",
      "NumberOfAverages": 1.0,
      "NumberOfPhaseEncodingSteps": 104,
      "PercentPhaseFieldOfView": 100.0,
      "PercentSampling": 100.0,
      "PerformedProcedureStepStartTime": "140037.811000",
      "PhotometricInterpretation": "MONOCHROME2",
      "PixelBandwidth": 2290.0,
      "PixelRepresentation": 0,
      "PixelSpacing": [2.0, 2.0],
      "ProtocolName": "task-sfprescaled_cmrr_mbepi_s6_2mm_66sl_PA_TR1.0",
      "RepetitionTime": 1000.0,
      "Rows": 936,
      "SAR": 0.05998716687588,
      "SamplesPerPixel": 1,
      "ScanOptions": "FS",
      "ScanningSequence": "EP",
      "SequenceName": "epfid2d1_104",
      "SequenceVariant": [
        "SK",
        "SS"
],
      "SeriesDescription": "task-sfprescaled_cmrr_mbepi_s6_2mm_66sl_PA_TR1.0",
      "SeriesNumber": 28,
      "SeriesTime": "150553.805000",
      "SliceLocation": -60.065602895364,
      "SliceThickness": 2.0,
      "SmallestImagePixelValue": 0,
      "SoftwareVersions": "syngo MR E11",
      "SpacingBetweenSlices": 1.9999999262666,
      "SpecificCharacterSet": "ISO_IR 100",
      "StudyID": "1",
      "StudyTime": "140037.749000",
      "TransmitCoilName": "Body",
      "VariableFlipAngleFlag": "N",
      "WindowCenterWidthExplanation": "Algo1",
      "dBdt": 0.0},
    "slices": {}
  },
  "time": {
    "samples": {
      "AcquisitionNumber": [1, 2, 3, 4, 5, 6, 7, 8, 9, 10, 11, 12, 13, 14, 15, 16, 17, 18, 19, 20, 21, 22, 23, 24, 25, 26, 27, 28, 29, 30, 31, 32, 33, 34, 35, 36, 37, 38, 39, 40, 41, 42, 43, 44, 45, 46, 47, 48, 49, 50, 51, 52, 53, 54, 55, 56, 57, 58, 59, 60, 61, 62, 63, 64, 65, 66, 67, 68, 69, 70, 71, 72, 73, 74, 75, 76, 77, 78, 79, 80, 81, 82, 83, 84, 85, 86, 87, 88, 89, 90, 91, 92, 93, 94, 95, 96, 97, 98, 99, 100, 101, 102, 103, 104, 105, 106, 107, 108, 109, 110, 111, 112, 113, 114, 115, 116, 117, 118, 119, 120, 121, 122, 123, 124, 125, 126, 127, 128, 129, 130, 131, 132, 133, 134, 135, 136, 137, 138, 139, 140, 141, 142, 143, 144, 145, 146, 147, 148, 149, 150, 151, 152, 153, 154, 155, 156, 157, 158, 159, 160, 161, 162, 163, 164, 165, 166, 167, 168, 169, 170, 171, 172, 173, 174, 175, 176, 177, 178, 179, 180, 181, 182, 183, 184, 185, 186, 187, 188, 189, 190, 191, 192, 193, 194, 195, 196, 197, 198, 199, 200, 201, 202, 203, 204, 205, 206, 207, 208, 209, 210, 211, 212, 213, 214, 215, 216, 217, 218, 219, 220, 221, 222, 223, 224, 225, 226, 227, 228, 229, 230, 231, 232, 233, 234, 235, 236, 237, 238, 239, 240, 241, 242, 243, 244, 245, 246, 247, 248, 249, 250, 251, 252, 253, 254, 255, 256, 257, 258, 259, 260, 261, 262, 263, 264],
      "AcquisitionTime": ["150453.542500", "150454.542500", "150455.542500", "150456.542500", "150457.542500", "150458.542500", "150459.542500", "150500.542500", "150501.542500", "150502.542500", "150503.542500", "150504.542500", "150505.542500", "150506.542500", "150507.542500", "150508.542500", "150509.542500", "150510.542500", "150511.542500", "150512.542500", "150513.542500", "150514.542500", "150515.542500", "150516.542500", "150517.542500", "150518.542500", "150519.542500", "150520.542500", "150521.542500", "150522.542500", "150523.542500", "150524.542500", "150525.542500", "150526.542500", "150527.542500", "150528.542500", "150529.542500", "150530.542500", "150531.542500", "150532.542500", "150533.542500", "150534.542500", "150535.542500", "150536.542500", "150537.542500", "150538.542500", "150539.542500", "150540.542500", "150541.542500", "150542.542500", "150543.542500", "150544.542500", "150545.542500", "150546.542500", "150547.542500", "150548.542500", "150549.542500", "150550.542500", "150551.542500", "150552.542500", "150553.542500", "150554.542500", "150555.542500", "150556.542500", "150557.542500", "150558.542500", "150559.542500", "150600.542500", "150601.542500", "150602.542500", "150603.542500", "150604.542500", "150605.542500", "150606.542500", "150607.542500", "150608.542500", "150609.542500", "150610.542500", "150611.542500", "150612.542500", "150613.542500", "150614.542500", "150615.542500", "150616.542500", "150617.542500", "150618.542500", "150619.542500", "150620.542500", "150621.542500", "150622.542500", "150623.542500", "150624.542500", "150625.542500", "150626.542500", "150627.542500", "150628.542500", "150629.542500", "150630.542500", "150631.542500", "150632.542500", "150633.542500", "150634.542500", "150635.542500", "150636.542500", "150637.542500", "150638.542500", "150639.542500", "150640.542500", "150641.542500", "150642.542500", "150643.542500", "150644.542500", "150645.542500", "150646.542500", "150647.542500", "150648.542500", "150649.542500", "150650.542500", "150651.542500", "150652.542500", "150653.542500", "150654.542500", "150655.542500", "150656.542500", "150657.542500", "150658.542500", "150659.542500", "150700.542500", "150701.542500", "150702.542500", "150703.542500", "150704.542500", "150705.542500", "150706.542500", "150707.542500", "150708.542500", "150709.542500", "150710.542500", "150711.542500", "150712.542500", "150713.542500", "150714.542500", "150715.542500", "150716.542500", "150717.542500", "150718.542500", "150719.542500", "150720.542500", "150721.542500", "150722.542500", "150723.542500", "150724.542500", "150725.542500", "150726.542500", "150727.542500", "150728.542500", "150729.542500", "150730.542500", "150731.542500", "150732.542500", "150733.542500", "150734.542500", "150735.542500", "150736.542500", "150737.542500", "150738.542500", "150739.542500", "150740.542500", "150741.542500", "150742.542500", "150743.542500", "150744.542500", "150745.542500", "150746.542500", "150747.542500", "150748.542500", "150749.542500", "150750.542500", "150751.542500", "150752.542500", "150753.542500", "150754.542500", "150755.542500", "150756.542500", "150757.542500", "150758.542500", "150759.542500", "150800.542500", "150801.542500", "150802.542500", "150803.542500", "150804.542500", "150805.542500", "150806.542500", "150807.542500", "150808.542500", "150809.542500", "150810.542500", "150811.542500", "150812.542500", "150813.542500", "150814.542500", "150815.542500", "150816.542500", "150817.542500", "150818.542500", "150819.542500", "150820.542500", "150821.542500", "150822.542500", "150823.542500", "150824.542500", "150825.542500", "150826.542500", "150827.542500", "150828.542500", "150829.542500", "150830.542500", "150831.542500", "150832.542500", "150833.542500", "150834.542500", "150835.542500", "150836.542500", "150837.542500", "150838.542500", "150839.542500", "150840.542500", "150841.542500", "150842.542500", "150843.542500", "150844.542500", "150845.542500", "150846.542500", "150847.542500", "150848.542500", "150849.542500", "150850.542500", "150851.542500", "150852.542500", "150853.542500", "150854.542500", "150855.542500", "150856.542500", "150857.542500", "150858.542500", "150859.542500", "150900.542500", "150901.542500", "150902.542500", "150903.542500", "150904.542500", "150905.542500", "150906.542500", "150907.542500", "150908.542500", "150909.542500", "150910.542500", "150911.542500", "150912.542500", "150913.542500", "150914.542500", "150915.542500", "150916.542500"],
      "ContentTime": ["150553.807000", "150553.823000", "150553.826000", "150553.829000", "150553.832000", "150553.835000", "150553.838000", "150558.806000", "150558.814000", "150558.817000", "150558.820000", "150558.823000", "150558.826000", "150558.829000", "150603.806000", "150603.809000", "150603.812000", "150603.815000", "150603.817000", "150603.820000", "150603.823000", "150608.807000", "150608.810000", "150608.826000", "150608.829000", "150608.832000", "150608.835000", "150608.838000", "150608.841000", "150613.806000", "150613.809000", "150613.811000", "150613.814000", "150613.817000", "150613.820000", "150613.823000", "150618.806000", "150618.809000", "150618.812000", "150618.814000", "150618.817000", "150618.820000", "150618.823000", "150623.806000", "150623.809000", "150623.811000", "150623.814000", "150623.817000", "150623.820000", "150623.823000", "150628.806000", "150628.809000", "150628.812000", "150628.814000", "150628.823000", "150628.826000", "150628.829000", "150633.806000", "150633.809000", "150633.812000", "150633.815000", "150633.817000", "150633.820000", "150633.823000", "150638.806000", "150638.809000", "150638.812000", "150638.815000", "150638.817000", "150638.820000", "150638.823000", "150643.807000", "150643.810000", "150643.813000", "150643.816000", "150643.819000", "150643.821000", "150643.824000", "150648.806000", "150648.809000", "150648.812000", "150648.815000", "150648.817000", "150648.820000", "150648.823000", "150653.806000", "150653.809000", "150653.812000", "150653.814000", "150653.817000", "150653.820000", "150653.823000", "150658.806000", "150658.809000", "150658.812000", "150658.815000", "150658.817000", "150658.820000", "150658.823000", "150703.806000", "150703.809000", "150703.812000", "150703.815000", "150703.818000", "150703.821000", "150703.824000", "150708.806000", "150708.809000", "150708.812000", "150708.815000", "150708.818000", "150708.821000", "150708.824000", "150713.806000", "150713.809000", "150713.811000", "150713.814000", "150713.817000", "150713.820000", "150713.823000", "150713.826000", "150718.807000", "150718.810000", "150718.813000", "150718.816000", "150718.818000", "150718.821000", "150718.824000", "150723.806000", "150723.883000", "150723.886000", "150723.889000", "150723.891000", "150723.894000", "150723.897000", "150728.806000", "150728.809000", "150728.812000", "150728.815000", "150728.817000", "150728.820000", "150728.823000", "150733.806000", "150733.809000", "150733.812000", "150733.815000", "150733.817000", "150733.820000", "150733.823000", "150738.806000", "150738.809000", "150738.812000", "150738.815000", "150738.817000", "150738.820000", "150738.823000", "150743.806000", "150743.809000", "150743.812000", "150743.815000", "150743.818000", "150743.820000", "150743.828000", "150748.806000", "150748.809000", "150748.812000", "150748.815000", "150748.818000", "150748.820000", "150748.823000", "150753.807000", "150753.810000", "150753.813000", "150753.816000", "150753.819000", "150753.821000", "150753.824000", "150758.806000", "150758.809000", "150758.812000", "150758.815000", "150758.818000", "150758.820000", "150758.823000", "150803.806000", "150803.809000", "150803.812000", "150803.815000", "150803.818000", "150808.806000", "150808.809000", "150808.812000", "150808.815000", "150808.817000", "150813.806000", "150813.809000", "150813.812000", "150813.815000", "150813.817000", "150818.806000", "150818.809000", "150818.812000", "150818.815000", "150818.817000", "150823.806000", "150823.816000", "150823.819000", "150823.822000", "150823.825000", "150828.807000", "150828.810000", "150828.813000", "150828.816000", "150828.818000", "150833.806000", "150833.809000", "150833.812000", "150833.815000", "150833.817000", "150838.806000", "150838.809000", "150838.812000", "150838.822000", "150838.824000", "150843.806000", "150843.809000", "150843.812000", "150843.815000", "150843.817000", "150848.806000", "150848.809000", "150848.812000", "150848.815000", "150848.817000", "150853.806000", "150853.809000", "150853.812000", "150853.815000", "150853.817000", "150858.806000", "150858.809000", "150858.812000", "150858.815000", "150858.817000", "150903.807000", "150903.810000", "150903.813000", "150903.823000", "150903.826000", "150908.806000", "150908.809000", "150908.812000", "150908.815000", "150908.817000", "150913.806000", "150913.809000", "150913.812000", "150913.815000", "150913.817000", "150918.172000", "150918.177000", "150918.180000", "150918.183000", "150918.186000"],
      "InstanceCreationTime": ["150553.807000", "150553.823000", "150553.826000", "150553.829000", "150553.832000", "150553.835000", "150553.838000", "150558.806000", "150558.814000", "150558.817000", "150558.820000", "150558.823000", "150558.826000", "150558.829000", "150603.806000", "150603.809000", "150603.812000", "150603.815000", "150603.817000", "150603.820000", "150603.823000", "150608.807000", "150608.810000", "150608.826000", "150608.829000", "150608.832000", "150608.835000", "150608.838000", "150608.841000", "150613.806000", "150613.809000", "150613.811000", "150613.814000", "150613.817000", "150613.820000", "150613.823000", "150618.806000", "150618.809000", "150618.812000", "150618.814000", "150618.817000", "150618.820000", "150618.823000", "150623.806000", "150623.809000", "150623.811000", "150623.814000", "150623.817000", "150623.820000", "150623.823000", "150628.806000", "150628.809000", "150628.812000", "150628.814000", "150628.823000", "150628.826000", "150628.829000", "150633.806000", "150633.809000", "150633.812000", "150633.815000", "150633.817000", "150633.820000", "150633.823000", "150638.806000", "150638.809000", "150638.812000", "150638.815000", "150638.817000", "150638.820000", "150638.823000", "150643.807000", "150643.810000", "150643.813000", "150643.816000", "150643.819000", "150643.821000", "150643.824000", "150648.806000", "150648.809000", "150648.812000", "150648.815000", "150648.817000", "150648.820000", "150648.823000", "150653.806000", "150653.809000", "150653.812000", "150653.814000", "150653.817000", "150653.820000", "150653.823000", "150658.806000", "150658.809000", "150658.812000", "150658.815000", "150658.817000", "150658.820000", "150658.823000", "150703.806000", "150703.809000", "150703.812000", "150703.815000", "150703.818000", "150703.821000", "150703.824000", "150708.806000", "150708.809000", "150708.812000", "150708.815000", "150708.818000", "150708.821000", "150708.824000", "150713.806000", "150713.809000", "150713.811000", "150713.814000", "150713.817000", "150713.820000", "150713.823000", "150713.826000", "150718.807000", "150718.810000", "150718.813000", "150718.816000", "150718.818000", "150718.821000", "150718.824000", "150723.806000", "150723.883000", "150723.886000", "150723.889000", "150723.891000", "150723.894000", "150723.897000", "150728.806000", "150728.809000", "150728.812000", "150728.815000", "150728.817000", "150728.820000", "150728.823000", "150733.806000", "150733.809000", "150733.812000", "150733.815000", "150733.817000", "150733.820000", "150733.823000", "150738.806000", "150738.809000", "150738.812000", "150738.815000", "150738.817000", "150738.820000", "150738.823000", "150743.806000", "150743.809000", "150743.812000", "150743.815000", "150743.818000", "150743.820000", "150743.828000", "150748.806000", "150748.809000", "150748.812000", "150748.815000", "150748.818000", "150748.820000", "150748.823000", "150753.807000", "150753.810000", "150753.813000", "150753.816000", "150753.819000", "150753.821000", "150753.824000", "150758.806000", "150758.809000", "150758.812000", "150758.815000", "150758.818000", "150758.820000", "150758.823000", "150803.806000", "150803.809000", "150803.812000", "150803.815000", "150803.818000", "150808.806000", "150808.809000", "150808.812000", "150808.815000", "150808.817000", "150813.806000", "150813.809000", "150813.812000", "150813.815000", "150813.817000", "150818.806000", "150818.809000", "150818.812000", "150818.815000", "150818.817000", "150823.806000", "150823.816000", "150823.819000", "150823.822000", "150823.825000", "150828.807000", "150828.810000", "150828.813000", "150828.816000", "150828.818000", "150833.806000", "150833.809000", "150833.812000", "150833.815000", "150833.817000", "150838.806000", "150838.809000", "150838.812000", "150838.822000", "150838.824000", "150843.806000", "150843.809000", "150843.812000", "150843.815000", "150843.817000", "150848.806000", "150848.809000", "150848.812000", "150848.815000", "150848.817000", "150853.806000", "150853.809000", "150853.812000", "150853.815000", "150853.817000", "150858.806000", "150858.809000", "150858.812000", "150858.815000", "150858.817000", "150903.807000", "150903.810000", "150903.813000", "150903.823000", "150903.826000", "150908.806000", "150908.809000", "150908.812000", "150908.815000", "150908.817000", "150913.806000", "150913.809000", "150913.812000", "150913.815000", "150913.817000", "150918.172000", "150918.177000", "150918.180000", "150918.183000", "150918.186000"],
      "InstanceNumber": [1, 2, 3, 4, 5, 6, 7, 8, 9, 10, 11, 12, 13, 14, 15, 16, 17, 18, 19, 20, 21, 22, 23, 24, 25, 26, 27, 28, 29, 30, 31, 32, 33, 34, 35, 36, 37, 38, 39, 40, 41, 42, 43, 44, 45, 46, 47, 48, 49, 50, 51, 52, 53, 54, 55, 56, 57, 58, 59, 60, 61, 62, 63, 64, 65, 66, 67, 68, 69, 70, 71, 72, 73, 74, 75, 76, 77, 78, 79, 80, 81, 82, 83, 84, 85, 86, 87, 88, 89, 90, 91, 92, 93, 94, 95, 96, 97, 98, 99, 100, 101, 102, 103, 104, 105, 106, 107, 108, 109, 110, 111, 112, 113, 114, 115, 116, 117, 118, 119, 120, 121, 122, 123, 124, 125, 126, 127, 128, 129, 130, 131, 132, 133, 134, 135, 136, 137, 138, 139, 140, 141, 142, 143, 144, 145, 146, 147, 148, 149, 150, 151, 152, 153, 154, 155, 156, 157, 158, 159, 160, 161, 162, 163, 164, 165, 166, 167, 168, 169, 170, 171, 172, 173, 174, 175, 176, 177, 178, 179, 180, 181, 182, 183, 184, 185, 186, 187, 188, 189, 190, 191, 192, 193, 194, 195, 196, 197, 198, 199, 200, 201, 202, 203, 204, 205, 206, 207, 208, 209, 210, 211, 212, 213, 214, 215, 216, 217, 218, 219, 220, 221, 222, 223, 224, 225, 226, 227, 228, 229, 230, 231, 232, 233, 234, 235, 236, 237, 238, 239, 240, 241, 242, 243, 244, 245, 246, 247, 248, 249, 250, 251, 252, 253, 254, 255, 256, 257, 258, 259, 260, 261, 262, 263, 264],
      "LargestImagePixelValue": [37693, 36555, 35917, 35643, 35359, 35571, 35438, 35602, 35059, 35170, 34438, 36052, 35019, 34862, 35500, 34557, 39983, 36886, 35799, 35366, 35180, 35551, 35179, 35669, 35838, 35746, 35292, 35612, 35410, 35541, 35666, 35132, 35160, 35368, 36046, 35537, 35156, 35162, 35149, 35110, 35835, 35599, 35288, 34847, 35668, 39710, 38346, 38154, 34988, 34543, 34269, 35459, 35319, 35358, 35770, 34822, 34868, 35325, 35419, 35670, 35506, 35548, 35617, 36008, 36123, 35193, 35320, 34787, 35271, 35237, 34045, 40433, 36774, 35390, 35267, 35732, 35226, 35265, 35079, 35422, 35538, 35208, 35519, 34774, 35213, 35209, 34949, 34696, 35570, 34767, 34895, 35689, 34950, 35744, 36088, 36378, 35761, 35871, 35642, 35569, 35700, 36200, 35654, 35821, 35565, 37241, 36371, 34805, 35116, 34585, 35218, 35395, 34556, 40515, 37604, 35493, 34687, 35321, 34811, 34714, 36041, 35661, 35656, 34884, 34932, 35497, 34669, 34500, 36097, 35099, 34008, 36875, 35999, 35287, 35491, 36400, 36022, 35954, 35537, 33715, 40047, 37317, 35901, 35782, 35614, 35698, 35445, 35203, 34382, 34456, 34904, 41589, 36689, 34996, 34622, 34275, 36926, 35233, 34809, 35340, 34256, 34617, 34299, 36109, 34753, 34899, 35203, 36076, 35841, 35220, 35326, 35035, 35153, 35842, 34430, 35077, 34218, 34675, 34535, 35290, 34998, 34896, 34178, 35028, 34430, 34816, 34194, 36537, 34770, 35867, 36039, 34953, 35380, 34428, 34936, 35248, 34932, 35378, 35220, 34513, 35092, 34828, 34571, 34995, 34063, 34842, 34819, 35993, 35570, 34642, 34575, 34660, 35024, 34893, 34741, 34194, 35995, 36286, 36115, 34854, 34536, 34182, 34428, 35332, 34715, 35200, 34909, 34717, 34539, 34690, 34965, 34033, 34416, 38042, 34239, 34646, 34897, 34180, 34434, 34482, 34400, 34833, 34407, 34086, 33885, 34668, 34396, 34671, 37041, 35464, 34455, 34115, 34288, 34567, 34502, 34816, 35782, 36132, 36495, 36170, 35611, 35657, 36579, 35832],
      "WindowCenter": [9524.0, 9481.0, 9454.0, 9446.0, 9435.0, 9438.0, 9428.0, 9426.0, 9426.0, 9429.0, 9430.0, 9441.0, 9431.0, 9428.0, 9427.0, 9422.0, 9467.0, 9443.0, 9434.0, 9445.0, 9440.0, 9438.0, 9433.0, 9430.0, 9436.0, 9436.0, 9431.0, 9447.0, 9456.0, 9456.0, 9465.0, 9467.0, 9466.0, 9466.0, 9470.0, 9464.0, 9466.0, 9472.0, 9475.0, 9476.0, 9473.0, 9466.0, 9453.0, 9451.0, 9458.0, 9499.0, 9494.0, 9495.0, 9469.0, 9463.0, 9454.0, 9456.0, 9449.0, 9448.0, 9456.0, 9459.0, 9455.0, 9455.0, 9458.0, 9451.0, 9449.0, 9440.0, 9439.0, 9443.0, 9434.0, 9422.0, 9429.0, 9424.0, 9422.0, 9423.0, 9419.0, 9485.0, 9466.0, 9457.0, 9450.0, 9455.0, 9447.0, 9449.0, 9451.0, 9442.0, 9440.0, 9433.0, 9431.0, 9424.0, 9424.0, 9422.0, 9408.0, 9407.0, 9421.0, 9418.0, 9423.0, 9436.0, 9435.0, 9454.0, 9454.0, 9446.0, 9445.0, 9430.0, 9428.0, 9429.0, 9436.0, 9441.0, 9438.0, 9445.0, 9447.0, 9447.0, 9442.0, 9431.0, 9432.0, 9427.0, 9426.0, 9429.0, 9426.0, 9490.0, 9469.0, 9456.0, 9445.0, 9453.0, 9445.0, 9438.0, 9454.0, 9440.0, 9447.0, 9445.0, 9462.0, 9477.0, 9466.0, 9454.0, 9454.0, 9447.0, 9431.0, 9458.0, 9442.0, 9437.0, 9443.0, 9452.0, 9439.0, 9429.0, 9421.0, 9399.0, 9453.0, 9430.0, 9420.0, 9431.0, 9423.0, 9424.0, 9423.0, 9415.0, 9403.0, 9407.0, 9415.0, 9477.0, 9449.0, 9436.0, 9446.0, 9448.0, 9471.0, 9463.0, 9455.0, 9453.0, 9427.0, 9413.0, 9398.0, 9420.0, 9421.0, 9437.0, 9450.0, 9463.0, 9450.0, 9434.0, 9432.0, 9420.0, 9418.0, 9428.0, 9411.0, 9417.0, 9399.0, 9394.0, 9400.0, 9404.0, 9405.0, 9413.0, 9404.0, 9409.0, 9411.0, 9423.0, 9418.0, 9458.0, 9443.0, 9451.0, 9457.0, 9436.0, 9435.0, 9413.0, 9409.0, 9422.0, 9418.0, 9446.0, 9445.0, 9439.0, 9436.0, 9435.0, 9428.0, 9428.0, 9416.0, 9435.0, 9436.0, 9448.0, 9449.0, 9448.0, 9448.0, 9450.0, 9441.0, 9440.0, 9440.0, 9427.0, 9447.0, 9456.0, 9470.0, 9471.0, 9467.0, 9444.0, 9440.0, 9437.0, 9430.0, 9443.0, 9438.0, 9431.0, 9432.0, 9430.0, 9446.0, 9433.0, 9446.0, 9489.0, 9458.0, 9465.0, 9467.0, 9453.0, 9443.0, 9433.0, 9439.0, 9440.0, 9436.0, 9433.0, 9441.0, 9459.0, 9445.0, 9444.0, 9456.0, 9437.0, 9410.0, 9400.0, 9397.0, 9404.0, 9405.0, 9409.0, 9414.0, 9422.0, 9436.0, 9430.0, 9417.0, 9416.0, 9418.0, 9413.0],
      "WindowWidth": [20269.0, 20161.0, 20098.0, 20073.0, 20048.0, 20057.0, 20032.0, 20027.0, 20027.0, 20038.0, 20039.0, 20056.0, 20039.0, 20031.0, 20031.0, 20022.0, 20101.0, 20056.0, 20049.0, 20075.0, 20068.0, 20064.0, 20054.0, 20046.0, 20056.0, 20054.0, 20048.0, 20083.0, 20104.0, 20104.0, 20126.0, 20130.0, 20125.0, 20127.0, 20130.0, 20119.0, 20125.0, 20134.0, 20142.0, 20146.0, 20138.0, 20126.0, 20102.0, 20096.0, 20110.0, 20187.0, 20178.0, 20185.0, 20138.0, 20123.0, 20104.0, 20099.0, 20087.0, 20086.0, 20102.0, 20114.0, 20112.0, 20115.0, 20114.0, 20099.0, 20092.0, 20069.0, 20066.0, 20068.0, 20048.0, 20024.0, 20039.0, 20032.0, 20027.0, 20029.0, 20023.0, 20150.0, 20122.0, 20106.0, 20093.0, 20097.0, 20083.0, 20090.0, 20097.0, 20077.0, 20072.0, 20056.0, 20046.0, 20033.0, 20032.0, 20026.0, 19999.0, 19994.0, 20022.0, 20020.0, 20029.0, 20054.0, 20062.0, 20099.0, 20098.0, 20081.0, 20077.0, 20044.0, 20035.0, 20040.0, 20052.0, 20062.0, 20061.0, 20074.0, 20081.0, 20070.0, 20060.0, 20045.0, 20051.0, 20042.0, 20041.0, 20040.0, 20042.0, 20154.0, 20120.0, 20103.0, 20088.0, 20105.0, 20088.0, 20072.0, 20095.0, 20068.0, 20082.0, 20087.0, 20128.0, 20159.0, 20138.0, 20104.0, 20091.0, 20076.0, 20052.0, 20098.0, 20074.0, 20069.0, 20079.0, 20091.0, 20066.0, 20040.0, 20024.0, 19990.0, 20077.0, 20035.0, 20022.0, 20046.0, 20031.0, 20033.0, 20029.0, 20009.0, 19985.0, 19991.0, 20011.0, 20118.0, 20079.0, 20068.0, 20091.0, 20098.0, 20138.0, 20126.0, 20110.0, 20104.0, 20052.0, 20016.0, 19982.0, 20015.0, 20024.0, 20068.0, 20096.0, 20119.0, 20090.0, 20055.0, 20051.0, 20028.0, 20024.0, 20038.0, 20011.0, 20021.0, 19987.0, 19968.0, 19978.0, 19981.0, 19985.0, 20008.0, 19998.0, 20004.0, 20010.0, 20028.0, 20019.0, 20102.0, 20078.0, 20096.0, 20107.0, 20069.0, 20064.0, 20017.0, 20002.0, 20025.0, 20021.0, 20079.0, 20084.0, 20074.0, 20064.0, 20061.0, 20047.0, 20049.0, 20025.0, 20065.0, 20065.0, 20084.0, 20088.0, 20096.0, 20099.0, 20105.0, 20084.0, 20083.0, 20081.0, 20057.0, 20078.0, 20101.0, 20133.0, 20147.0, 20145.0, 20093.0, 20077.0, 20069.0, 20054.0, 20079.0, 20076.0, 20060.0, 20062.0, 20057.0, 20092.0, 20065.0, 20087.0, 20164.0, 20119.0, 20131.0, 20142.0, 20114.0, 20091.0, 20064.0, 20075.0, 20078.0, 20062.0, 20060.0, 20082.0, 20126.0, 20097.0, 20096.0, 20106.0, 20069.0, 20014.0, 19989.0, 19979.0, 19992.0, 19997.0, 19999.0, 20007.0, 20024.0, 20052.0, 20039.0, 20014.0, 20009.0, 20005.0, 19999.0]
    },
    "slices": {}
  },
  "NumberOfVolumes": 264
}