{
  "AcquisitionMatrixPE": 104,
  "AcquisitionNumber": 1,
  "AcquisitionTime": "14:25:3.452500",
  "BandwidthPerPixelPhaseEncode": 16.578,
  "BaseResolution": 104,
  "BodyPartExamined": "BRAIN",
  "ConsistencyInfo": "N4_VE11C_LATEST_20160120",
  "ConversionSoftware": "dcm2niix",
  "ConversionSoftwareVersion": "v1.0.20190410  GCC6.3.0",
  "DerivedVendorReportedEchoSpacing": 0.000580009,
  "DeviceSerialNumber": "166018",
  "DwellTime": 2.1e-06,
  "EchoTime": 0.037,
  "EchoTrainLength": 104,
  "EffectiveEchoSpacing": 0.000580009,
  "FlipAngle": 68,
  "ImageComments": "Unaliased_MB6_PE3_LB",
  "ImageOrientationPatientDICOM": [0.997547, -0.0602919, -0.0355546, 0.0479156, 0.958503, -0.281028],
  "ImageType": [
    "ORIGINAL",
    "PRIMARY",
    "M",
    "MB",
    "ND",
    "MOSAIC"
],
  "ImagingFrequency": 123.191,
  "InPlanePhaseEncodingDirectionDICOM": "COL",
  "InstitutionAddress": "Washington_Place_6_NYC_NYC_US_10003",
  "InstitutionName": "NYU_Center_for_Brain_Imaging",
  "InstitutionalDepartmentName": "Department",
  "MRAcquisitionType": "2D",
  "MagneticFieldStrength": 3,
  "Manufacturer": "Siemens",
  "ManufacturersModelName": "Prisma",
  "Modality": "MR",
  "MultibandAccelerationFactor": 6,
  "PartialFourier": 1,
  "PatientPosition": "HFS",
  "PercentPhaseFOV": 100,
  "PhaseEncodingDirection": "j",
  "PhaseEncodingSteps": 104,
  "PhaseResolution": 1,
  "PixelBandwidth": 2290,
  "ProcedureStepDescription": "Investigators_Winawer",
  "ProtocolName": "task-sfprescaled_cmrr_mbepi_s6_2mm_66sl_PA_TR1.0",
  "PulseSequenceDetails": "%CustomerSeq%_cmrr_mbep2d_bold",
  "ReceiveCoilActiveElements": "HC1-7",
  "ReceiveCoilName": "HeadNeck_64",
  "ReconMatrixPE": 104,
  "RepetitionTime": 1,
  "SAR": 0.0599872,
  "ScanOptions": "FS",
  "ScanningSequence": "EP",
  "SequenceName": "epfid2d1_104",
  "SequenceVariant": "SK_SS",
  "SeriesDescription": "task-sfprescaled_cmrr_mbepi_s6_2mm_66sl_PA_TR1.0",
  "SeriesNumber": 12,
  "ShimSetting": [244, -12533, -8553, 292, -42, 159, -175, 26],
  "SliceThickness": 2,
  "SliceTiming": [0, 0.535, 0.0875, 0.6225, 0.1775, 0.7125, 0.2675, 0.8025, 0.355, 0.89, 0.445, 0, 0.535, 0.0875, 0.6225, 0.1775, 0.7125, 0.2675, 0.8025, 0.355, 0.89, 0.445, 0, 0.535, 0.0875, 0.6225, 0.1775, 0.7125, 0.2675, 0.8025, 0.355, 0.89, 0.445, 0, 0.535, 0.0875, 0.6225, 0.1775, 0.7125, 0.2675, 0.8025, 0.355, 0.89, 0.445, 0, 0.535, 0.0875, 0.6225, 0.1775, 0.7125, 0.2675, 0.8025, 0.355, 0.89, 0.445, 0, 0.535, 0.0875, 0.6225, 0.1775, 0.7125, 0.2675, 0.8025, 0.355, 0.89, 0.445],
  "SoftwareVersions": "syngo_MR_E11",
  "SpacingBetweenSlices": 2,
  "StationName": "AWP166018",
  "TaskName": "sfprescaled",
  "TotalReadoutTime": 0.0597409,
  "TxRefAmp": 201.638,
  "WipMemBlock": "e446e14a-dced-4007-87d9-d2781c55cea2||Sequence: R016 ve11c/master r/8780670; Nov 27 2017 15:05:12 by eja",
  "dcmmeta_affine": [
    [-1.9950947761535645, 0.09583121538162231, -0.10204588621854782, 113.34072875976562],
    [0.12058382481336594, 1.9170050621032715, -0.5572711229324341, -73.6729507446289],
    [-0.07110926508903503, 0.5620568990707397, 1.9180811643600464, -78.0055923461914],
    [0.0, 0.0, 0.0, 1.0]
],
  "dcmmeta_reorient_transform": [
    [0.0, -1.0, 0.0, 103.0],
    [1.0, 0.0, 0.0, 0.0],
    [0.0, 0.0, 1.0, 0.0],
    [0.0, 0.0, 0.0, 1.0]
],
  "dcmmeta_shape": [104, 104, 66, 264],
  "dcmmeta_slice_dim": 2,
  "dcmmeta_version": 0.6,
  "global": {
    "const": {
      "AccessionNumber": "k5onhzs7",
      "AcquisitionMatrix": [104, 0, 0, 104],
      "AngioFlag": "N",
      "BitsAllocated": 16,
      "BitsStored": 16,
      "BodyPartExamined": "BRAIN",
      "Columns": 936,
      "EchoNumbers": 1,
      "EchoTime": 37.0,
      "EchoTrainLength": 104,
      "FlipAngle": 68.0,
      "HighBit": 15,
      "ImageOrientationPatient": [0.99754736907445, -0.0602919119506, -0.0355546312874, 0.04791560694718, 0.95850253404615, -0.2810284448913],
      "ImagePositionPatient": [-993.03653895377, -871.08980635917, 243.28338726346],
      "ImageType": [
        "ORIGINAL",
        "PRIMARY",
        "M",
        "MB",
        "ND",
        "MOSAIC"
],
      "ImagedNucleus": "1H",
      "ImagingFrequency": 123.190782,
      "InPlanePhaseEncodingDirection": "COL",
      "MRAcquisitionType": "2D",
      "MagneticFieldStrength": 3.0,
      "Manufacturer": "SIEMENS",
      "ManufacturerModelName": "Prisma",
      "Modality": "MR",
      "NumberOfAverages": 1.0,
      "NumberOfPhaseEncodingSteps": 104,
      "PercentPhaseFieldOfView": 100.0,
      "PercentSampling": 100.0,
      "PerformedProcedureStepStartTime": "140037.811000",
      "PhotometricInterpretation": "MONOCHROME2",
      "PixelBandwidth": 2290.0,
      "PixelRepresentation": 0,
      "PixelSpacing": [2.0, 2.0],
      "ProtocolName": "task-sfprescaled_cmrr_mbepi_s6_2mm_66sl_PA_TR1.0",
      "RepetitionTime": 1000.0,
      "Rows": 936,
      "SAR": 0.05998716687588,
      "SamplesPerPixel": 1,
      "ScanOptions": "FS",
      "ScanningSequence": "EP",
      "SequenceName": "epfid2d1_104",
      "SequenceVariant": [
        "SK",
        "SS"
],
      "SeriesDescription": "task-sfprescaled_cmrr_mbepi_s6_2mm_66sl_PA_TR1.0",
      "SeriesNumber": 12,
      "SeriesTime": "142603.445000",
      "SliceLocation": -60.065602895364,
      "SliceThickness": 2.0,
      "SmallestImagePixelValue": 0,
      "SoftwareVersions": "syngo MR E11",
      "SpacingBetweenSlices": 1.9999999262666,
      "SpecificCharacterSet": "ISO_IR 100",
      "StudyID": "1",
      "StudyTime": "140037.749000",
      "TransmitCoilName": "Body",
      "VariableFlipAngleFlag": "N",
      "WindowCenterWidthExplanation": "Algo1",
      "dBdt": 0.0},
    "slices": {}
  },
  "time": {
    "samples": {
      "AcquisitionNumber": [1, 2, 3, 4, 5, 6, 7, 8, 9, 10, 11, 12, 13, 14, 15, 16, 17, 18, 19, 20, 21, 22, 23, 24, 25, 26, 27, 28, 29, 30, 31, 32, 33, 34, 35, 36, 37, 38, 39, 40, 41, 42, 43, 44, 45, 46, 47, 48, 49, 50, 51, 52, 53, 54, 55, 56, 57, 58, 59, 60, 61, 62, 63, 64, 65, 66, 67, 68, 69, 70, 71, 72, 73, 74, 75, 76, 77, 78, 79, 80, 81, 82, 83, 84, 85, 86, 87, 88, 89, 90, 91, 92, 93, 94, 95, 96, 97, 98, 99, 100, 101, 102, 103, 104, 105, 106, 107, 108, 109, 110, 111, 112, 113, 114, 115, 116, 117, 118, 119, 120, 121, 122, 123, 124, 125, 126, 127, 128, 129, 130, 131, 132, 133, 134, 135, 136, 137, 138, 139, 140, 141, 142, 143, 144, 145, 146, 147, 148, 149, 150, 151, 152, 153, 154, 155, 156, 157, 158, 159, 160, 161, 162, 163, 164, 165, 166, 167, 168, 169, 170, 171, 172, 173, 174, 175, 176, 177, 178, 179, 180, 181, 182, 183, 184, 185, 186, 187, 188, 189, 190, 191, 192, 193, 194, 195, 196, 197, 198, 199, 200, 201, 202, 203, 204, 205, 206, 207, 208, 209, 210, 211, 212, 213, 214, 215, 216, 217, 218, 219, 220, 221, 222, 223, 224, 225, 226, 227, 228, 229, 230, 231, 232, 233, 234, 235, 236, 237, 238, 239, 240, 241, 242, 243, 244, 245, 246, 247, 248, 249, 250, 251, 252, 253, 254, 255, 256, 257, 258, 259, 260, 261, 262, 263, 264],
      "AcquisitionTime": ["142503.452500", "142504.452500", "142505.452500", "142506.452500", "142507.452500", "142508.452500", "142509.452500", "142510.452500", "142511.452500", "142512.452500", "142513.452500", "142514.452500", "142515.452500", "142516.452500", "142517.452500", "142518.452500", "142519.452500", "142520.452500", "142521.452500", "142522.452500", "142523.452500", "142524.452500", "142525.452500", "142526.452500", "142527.452500", "142528.452500", "142529.452500", "142530.452500", "142531.452500", "142532.452500", "142533.452500", "142534.452500", "142535.452500", "142536.452500", "142537.452500", "142538.452500", "142539.452500", "142540.452500", "142541.452500", "142542.452500", "142543.452500", "142544.452500", "142545.452500", "142546.452500", "142547.452500", "142548.452500", "142549.452500", "142550.452500", "142551.452500", "142552.452500", "142553.452500", "142554.452500", "142555.452500", "142556.452500", "142557.452500", "142558.452500", "142559.452500", "142600.452500", "142601.452500", "142602.452500", "142603.452500", "142604.452500", "142605.452500", "142606.452500", "142607.452500", "142608.452500", "142609.452500", "142610.452500", "142611.452500", "142612.452500", "142613.452500", "142614.452500", "142615.452500", "142616.452500", "142617.452500", "142618.452500", "142619.452500", "142620.452500", "142621.452500", "142622.452500", "142623.452500", "142624.452500", "142625.452500", "142626.452500", "142627.452500", "142628.452500", "142629.452500", "142630.452500", "142631.452500", "142632.452500", "142633.452500", "142634.452500", "142635.452500", "142636.452500", "142637.452500", "142638.452500", "142639.452500", "142640.452500", "142641.452500", "142642.452500", "142643.452500", "142644.452500", "142645.452500", "142646.452500", "142647.452500", "142648.452500", "142649.452500", "142650.452500", "142651.452500", "142652.452500", "142653.452500", "142654.452500", "142655.452500", "142656.452500", "142657.452500", "142658.452500", "142659.452500", "142700.452500", "142701.452500", "142702.452500", "142703.452500", "142704.452500", "142705.452500", "142706.452500", "142707.452500", "142708.452500", "142709.452500", "142710.452500", "142711.452500", "142712.452500", "142713.452500", "142714.452500", "142715.452500", "142716.452500", "142717.452500", "142718.452500", "142719.452500", "142720.452500", "142721.452500", "142722.452500", "142723.452500", "142724.452500", "142725.452500", "142726.452500", "142727.452500", "142728.452500", "142729.452500", "142730.452500", "142731.452500", "142732.452500", "142733.452500", "142734.452500", "142735.452500", "142736.452500", "142737.452500", "142738.452500", "142739.452500", "142740.452500", "142741.452500", "142742.452500", "142743.452500", "142744.452500", "142745.452500", "142746.452500", "142747.452500", "142748.452500", "142749.452500", "142750.452500", "142751.452500", "142752.452500", "142753.452500", "142754.452500", "142755.452500", "142756.452500", "142757.452500", "142758.452500", "142759.452500", "142800.452500", "142801.452500", "142802.452500", "142803.452500", "142804.452500", "142805.452500", "142806.452500", "142807.452500", "142808.452500", "142809.452500", "142810.452500", "142811.452500", "142812.452500", "142813.452500", "142814.452500", "142815.452500", "142816.452500", "142817.452500", "142818.452500", "142819.452500", "142820.452500", "142821.452500", "142822.452500", "142823.452500", "142824.452500", "142825.452500", "142826.452500", "142827.452500", "142828.452500", "142829.452500", "142830.452500", "142831.452500", "142832.452500", "142833.452500", "142834.452500", "142835.452500", "142836.452500", "142837.452500", "142838.452500", "142839.452500", "142840.452500", "142841.452500", "142842.452500", "142843.452500", "142844.452500", "142845.452500", "142846.452500", "142847.452500", "142848.452500", "142849.452500", "142850.452500", "142851.452500", "142852.452500", "142853.452500", "142854.452500", "142855.452500", "142856.452500", "142857.452500", "142858.452500", "142859.452500", "142900.452500", "142901.452500", "142902.452500", "142903.452500", "142904.452500", "142905.452500", "142906.452500", "142907.452500", "142908.452500", "142909.452500", "142910.452500", "142911.452500", "142912.452500", "142913.452500", "142914.452500", "142915.452500", "142916.452500", "142917.452500", "142918.452500", "142919.452500", "142920.452500", "142921.452500", "142922.452500", "142923.452500", "142924.452500", "142925.452500", "142926.452500"],
      "ContentTime": ["142603.447000", "142603.451000", "142603.453000", "142603.456000", "142603.459000", "142603.470000", "142603.472000", "142608.446000", "142608.449000", "142608.452000", "142608.455000", "142608.457000", "142608.460000", "142608.463000", "142613.447000", "142613.450000", "142613.453000", "142613.462000", "142613.465000", "142613.468000", "142613.471000", "142618.447000", "142618.450000", "142618.453000", "142618.456000", "142618.458000", "142618.461000", "142618.464000", "142623.446000", "142623.449000", "142623.452000", "142623.455000", "142623.457000", "142623.460000", "142623.463000", "142628.446000", "142628.449000", "142628.452000", "142628.454000", "142628.457000", "142628.460000", "142628.463000", "142633.447000", "142633.450000", "142633.453000", "142633.456000", "142633.458000", "142633.461000", "142633.464000", "142638.446000", "142638.449000", "142638.452000", "142638.454000", "142638.457000", "142638.460000", "142638.463000", "142643.446000", "142643.449000", "142643.452000", "142643.454000", "142643.457000", "142643.460000", "142643.463000", "142648.447000", "142648.450000", "142648.452000", "142648.455000", "142648.458000", "142648.461000", "142648.464000", "142648.467000", "142653.447000", "142653.450000", "142653.453000", "142653.456000", "142653.458000", "142653.461000", "142653.464000", "142658.446000", "142658.449000", "142658.452000", "142658.454000", "142658.457000", "142658.460000", "142658.470000", "142703.459000", "142703.462000", "142703.465000", "142703.468000", "142703.470000", "142703.473000", "142703.476000", "142708.447000", "142708.450000", "142708.453000", "142708.455000", "142708.458000", "142708.461000", "142708.464000", "142713.446000", "142713.449000", "142713.452000", "142713.454000", "142713.457000", "142713.465000", "142713.468000", "142718.446000", "142718.449000", "142718.452000", "142718.454000", "142718.457000", "142718.460000", "142718.463000", "142723.447000", "142723.450000", "142723.453000", "142723.455000", "142723.458000", "142723.461000", "142723.464000", "142728.447000", "142728.450000", "142728.453000", "142728.455000", "142728.458000", "142728.461000", "142728.464000", "142733.446000", "142733.449000", "142733.452000", "142733.454000", "142733.457000", "142733.460000", "142733.463000", "142738.446000", "142738.449000", "142738.452000", "142738.455000", "142738.457000", "142738.460000", "142738.463000", "142743.447000", "142743.450000", "142743.453000", "142743.455000", "142743.458000", "142743.461000", "142743.464000", "142748.446000", "142748.449000", "142748.452000", "142748.454000", "142748.457000", "142748.460000", "142748.463000", "142753.446000", "142753.449000", "142753.452000", "142753.454000", "142753.457000", "142753.460000", "142753.463000", "142758.447000", "142758.450000", "142758.453000", "142758.456000", "142758.459000", "142758.462000", "142758.464000", "142803.447000", "142803.450000", "142803.453000", "142803.455000", "142803.458000", "142803.461000", "142803.464000", "142803.467000", "142808.446000", "142808.449000", "142808.452000", "142808.454000", "142808.457000", "142808.460000", "142808.463000", "142813.446000", "142813.449000", "142813.452000", "142813.455000", "142813.457000", "142818.447000", "142818.450000", "142818.453000", "142818.456000", "142818.458000", "142823.446000", "142823.449000", "142823.452000", "142823.455000", "142823.457000", "142828.446000", "142828.449000", "142828.452000", "142828.454000", "142828.457000", "142833.447000", "142833.450000", "142833.453000", "142833.455000", "142833.458000", "142838.447000", "142838.450000", "142838.453000", "142838.455000", "142838.458000", "142843.446000", "142843.449000", "142843.452000", "142843.454000", "142843.457000", "142848.446000", "142848.449000", "142848.452000", "142848.455000", "142848.457000", "142853.447000", "142853.450000", "142853.453000", "142853.456000", "142853.458000", "142858.446000", "142858.449000", "142858.452000", "142858.455000", "142858.457000", "142903.446000", "142903.449000", "142903.452000", "142903.455000", "142903.457000", "142908.447000", "142908.450000", "142908.453000", "142908.456000", "142908.459000", "142913.447000", "142913.450000", "142913.453000", "142913.456000", "142913.458000", "142918.446000", "142918.449000", "142918.452000", "142918.455000", "142918.457000", "142923.446000", "142923.449000", "142923.452000", "142923.455000", "142923.457000", "142927.814000", "142927.818000", "142927.821000", "142927.824000", "142927.827000"],
      "InstanceCreationTime": ["142603.447000", "142603.451000", "142603.453000", "142603.456000", "142603.459000", "142603.470000", "142603.472000", "142608.446000", "142608.449000", "142608.452000", "142608.455000", "142608.457000", "142608.460000", "142608.463000", "142613.447000", "142613.450000", "142613.453000", "142613.462000", "142613.465000", "142613.468000", "142613.471000", "142618.447000", "142618.450000", "142618.453000", "142618.456000", "142618.458000", "142618.461000", "142618.464000", "142623.446000", "142623.449000", "142623.452000", "142623.455000", "142623.457000", "142623.460000", "142623.463000", "142628.446000", "142628.449000", "142628.452000", "142628.454000", "142628.457000", "142628.460000", "142628.463000", "142633.447000", "142633.450000", "142633.453000", "142633.456000", "142633.458000", "142633.461000", "142633.464000", "142638.446000", "142638.449000", "142638.452000", "142638.454000", "142638.457000", "142638.460000", "142638.463000", "142643.446000", "142643.449000", "142643.452000", "142643.454000", "142643.457000", "142643.460000", "142643.463000", "142648.447000", "142648.450000", "142648.452000", "142648.455000", "142648.458000", "142648.461000", "142648.464000", "142648.467000", "142653.447000", "142653.450000", "142653.453000", "142653.456000", "142653.458000", "142653.461000", "142653.464000", "142658.446000", "142658.449000", "142658.452000", "142658.454000", "142658.457000", "142658.460000", "142658.470000", "142703.459000", "142703.462000", "142703.465000", "142703.468000", "142703.470000", "142703.473000", "142703.476000", "142708.447000", "142708.450000", "142708.453000", "142708.455000", "142708.458000", "142708.461000", "142708.464000", "142713.446000", "142713.449000", "142713.452000", "142713.454000", "142713.457000", "142713.465000", "142713.468000", "142718.446000", "142718.449000", "142718.452000", "142718.454000", "142718.457000", "142718.460000", "142718.463000", "142723.447000", "142723.450000", "142723.453000", "142723.455000", "142723.458000", "142723.461000", "142723.464000", "142728.447000", "142728.450000", "142728.453000", "142728.455000", "142728.458000", "142728.461000", "142728.464000", "142733.446000", "142733.449000", "142733.452000", "142733.454000", "142733.457000", "142733.460000", "142733.463000", "142738.446000", "142738.449000", "142738.452000", "142738.455000", "142738.457000", "142738.460000", "142738.463000", "142743.447000", "142743.450000", "142743.453000", "142743.455000", "142743.458000", "142743.461000", "142743.464000", "142748.446000", "142748.449000", "142748.452000", "142748.454000", "142748.457000", "142748.460000", "142748.463000", "142753.446000", "142753.449000", "142753.452000", "142753.454000", "142753.457000", "142753.460000", "142753.463000", "142758.447000", "142758.450000", "142758.453000", "142758.456000", "142758.459000", "142758.462000", "142758.464000", "142803.447000", "142803.450000", "142803.453000", "142803.455000", "142803.458000", "142803.461000", "142803.464000", "142803.467000", "142808.446000", "142808.449000", "142808.452000", "142808.454000", "142808.457000", "142808.460000", "142808.463000", "142813.446000", "142813.449000", "142813.452000", "142813.455000", "142813.457000", "142818.447000", "142818.450000", "142818.453000", "142818.456000", "142818.458000", "142823.446000", "142823.449000", "142823.452000", "142823.455000", "142823.457000", "142828.446000", "142828.449000", "142828.452000", "142828.454000", "142828.457000", "142833.447000", "142833.450000", "142833.453000", "142833.455000", "142833.458000", "142838.447000", "142838.450000", "142838.453000", "142838.455000", "142838.458000", "142843.446000", "142843.449000", "142843.452000", "142843.454000", "142843.457000", "142848.446000", "142848.449000", "142848.452000", "142848.455000", "142848.457000", "142853.447000", "142853.450000", "142853.453000", "142853.456000", "142853.458000", "142858.446000", "142858.449000", "142858.452000", "142858.455000", "142858.457000", "142903.446000", "142903.449000", "142903.452000", "142903.455000", "142903.457000", "142908.447000", "142908.450000", "142908.453000", "142908.456000", "142908.459000", "142913.447000", "142913.450000", "142913.453000", "142913.456000", "142913.458000", "142918.446000", "142918.449000", "142918.452000", "142918.455000", "142918.457000", "142923.446000", "142923.449000", "142923.452000", "142923.455000", "142923.457000", "142927.814000", "142927.818000", "142927.821000", "142927.824000", "142927.827000"],
      "InstanceNumber": [1, 2, 3, 4, 5, 6, 7, 8, 9, 10, 11, 12, 13, 14, 15, 16, 17, 18, 19, 20, 21, 22, 23, 24, 25, 26, 27, 28, 29, 30, 31, 32, 33, 34, 35, 36, 37, 38, 39, 40, 41, 42, 43, 44, 45, 46, 47, 48, 49, 50, 51, 52, 53, 54, 55, 56, 57, 58, 59, 60, 61, 62, 63, 64, 65, 66, 67, 68, 69, 70, 71, 72, 73, 74, 75, 76, 77, 78, 79, 80, 81, 82, 83, 84, 85, 86, 87, 88, 89, 90, 91, 92, 93, 94, 95, 96, 97, 98, 99, 100, 101, 102, 103, 104, 105, 106, 107, 108, 109, 110, 111, 112, 113, 114, 115, 116, 117, 118, 119, 120, 121, 122, 123, 124, 125, 126, 127, 128, 129, 130, 131, 132, 133, 134, 135, 136, 137, 138, 139, 140, 141, 142, 143, 144, 145, 146, 147, 148, 149, 150, 151, 152, 153, 154, 155, 156, 157, 158, 159, 160, 161, 162, 163, 164, 165, 166, 167, 168, 169, 170, 171, 172, 173, 174, 175, 176, 177, 178, 179, 180, 181, 182, 183, 184, 185, 186, 187, 188, 189, 190, 191, 192, 193, 194, 195, 196, 197, 198, 199, 200, 201, 202, 203, 204, 205, 206, 207, 208, 209, 210, 211, 212, 213, 214, 215, 216, 217, 218, 219, 220, 221, 222, 223, 224, 225, 226, 227, 228, 229, 230, 231, 232, 233, 234, 235, 236, 237, 238, 239, 240, 241, 242, 243, 244, 245, 246, 247, 248, 249, 250, 251, 252, 253, 254, 255, 256, 257, 258, 259, 260, 261, 262, 263, 264],
      "LargestImagePixelValue": [36680, 33541, 34101, 33531, 33344, 33843, 33865, 34156, 33946, 34254, 34120, 33697, 33614, 33804, 33577, 34253, 33190, 33221, 33653, 33460, 33802, 33916, 34109, 34368, 34538, 34659, 34392, 34526, 34485, 34478, 34963, 34799, 34709, 34794, 34800, 34641, 34763, 34607, 34587, 34637, 34651, 34221, 34366, 34657, 34330, 34581, 34056, 34491, 35014, 34318, 35014, 34604, 34411, 34858, 35046, 34458, 34639, 34557, 34238, 34285, 34811, 34645, 34514, 34768, 34643, 34282, 34855, 34296, 34802, 34279, 34434, 34759, 34606, 34848, 34687, 34408, 34020, 34863, 34467, 35242, 35045, 34956, 34995, 35165, 35243, 34818, 34777, 34871, 34781, 35085, 35189, 34953, 34958, 35137, 34917, 34844, 35157, 35336, 34835, 35079, 35331, 35094, 35218, 34862, 34617, 34633, 35024, 35247, 34954, 34561, 34862, 34522, 34663, 34002, 34217, 34322, 34263, 34457, 34292, 34286, 34668, 34211, 34523, 34701, 34361, 34928, 34544, 34689, 34455, 34289, 34702, 34512, 34280, 34692, 34055, 34319, 34602, 34746, 34379, 34229, 34525, 34228, 34389, 34662, 34719, 34783, 34877, 34490, 34176, 34565, 34668, 34269, 34732, 34164, 34394, 34556, 34231, 33988, 34189, 33933, 33898, 34059, 34220, 34467, 33574, 33778, 34182, 33783, 33718, 34028, 33733, 34034, 34371, 34159, 33908, 34022, 33109, 33242, 33668, 33898, 34428, 34291, 34412, 34281, 34391, 33934, 33748, 34439, 33768, 33974, 34101, 33902, 33918, 34055, 33641, 33766, 34417, 33899, 34203, 34299, 34046, 34036, 33690, 34214, 34519, 34102, 34042, 34256, 33984, 33419, 33870, 34074, 34220, 34117, 34398, 33788, 33873, 34196, 34028, 34284, 34008, 34045, 34132, 34143, 34177, 34543, 34575, 34039, 34891, 34420, 34419, 34818, 34685, 34563, 34427, 34486, 34583, 35026, 34523, 34561, 34460, 34505, 34042, 34397, 34423, 34406, 34593, 34466, 34500, 34076, 34294, 34117, 34303, 34645, 34293, 34008, 34205, 33964, 33938, 34781, 34362, 34244, 34151, 34194],
      "WindowCenter": [9467.0, 9400.0, 9394.0, 9386.0, 9380.0, 9384.0, 9384.0, 9391.0, 9382.0, 9381.0, 9381.0, 9374.0, 9375.0, 9383.0, 9387.0, 9398.0, 9387.0, 9371.0, 9367.0, 9368.0, 9375.0, 9368.0, 9376.0, 9383.0, 9385.0, 9399.0, 9401.0, 9395.0, 9392.0, 9376.0, 9373.0, 9371.0, 9370.0, 9371.0, 9379.0, 9387.0, 9387.0, 9388.0, 9397.0, 9410.0, 9418.0, 9410.0, 9402.0, 9392.0, 9378.0, 9374.0, 9368.0, 9371.0, 9369.0, 9366.0, 9386.0, 9382.0, 9390.0, 9390.0, 9394.0, 9383.0, 9391.0, 9384.0, 9385.0, 9387.0, 9390.0, 9396.0, 9399.0, 9398.0, 9399.0, 9400.0, 9398.0, 9386.0, 9391.0, 9387.0, 9400.0, 9409.0, 9410.0, 9418.0, 9418.0, 9413.0, 9408.0, 9410.0, 9410.0, 9415.0, 9414.0, 9410.0, 9410.0, 9416.0, 9423.0, 9410.0, 9410.0, 9417.0, 9417.0, 9417.0, 9415.0, 9409.0, 9407.0, 9397.0, 9391.0, 9397.0, 9404.0, 9414.0, 9408.0, 9414.0, 9413.0, 9404.0, 9404.0, 9399.0, 9401.0, 9403.0, 9416.0, 9415.0, 9401.0, 9401.0, 9399.0, 9392.0, 9391.0, 9378.0, 9382.0, 9376.0, 9385.0, 9391.0, 9393.0, 9407.0, 9409.0, 9419.0, 9418.0, 9412.0, 9409.0, 9405.0, 9393.0, 9391.0, 9384.0, 9393.0, 9392.0, 9400.0, 9403.0, 9409.0, 9398.0, 9404.0, 9400.0, 9393.0, 9392.0, 9386.0, 9392.0, 9386.0, 9394.0, 9402.0, 9402.0, 9409.0, 9409.0, 9401.0, 9402.0, 9411.0, 9404.0, 9405.0, 9418.0, 9405.0, 9404.0, 9412.0, 9404.0, 9398.0, 9402.0, 9394.0, 9400.0, 9392.0, 9393.0, 9400.0, 9387.0, 9394.0, 9393.0, 9386.0, 9380.0, 9376.0, 9377.0, 9395.0, 9410.0, 9405.0, 9407.0, 9389.0, 9366.0, 9364.0, 9371.0, 9371.0, 9383.0, 9386.0, 9387.0, 9387.0, 9393.0, 9388.0, 9389.0, 9410.0, 9407.0, 9416.0, 9408.0, 9408.0, 9407.0, 9398.0, 9391.0, 9397.0, 9392.0, 9387.0, 9392.0, 9393.0, 9397.0, 9399.0, 9401.0, 9413.0, 9420.0, 9413.0, 9406.0, 9404.0, 9397.0, 9391.0, 9398.0, 9396.0, 9397.0, 9397.0, 9388.0, 9388.0, 9390.0, 9380.0, 9380.0, 9380.0, 9380.0, 9389.0, 9388.0, 9389.0, 9394.0, 9394.0, 9394.0, 9387.0, 9390.0, 9377.0, 9375.0, 9383.0, 9384.0, 9386.0, 9396.0, 9404.0, 9411.0, 9411.0, 9396.0, 9393.0, 9387.0, 9377.0, 9379.0, 9387.0, 9393.0, 9402.0, 9402.0, 9402.0, 9402.0, 9382.0, 9387.0, 9393.0, 9393.0, 9398.0, 9391.0, 9380.0, 9391.0, 9384.0, 9385.0, 9388.0, 9384.0, 9383.0, 9381.0, 9384.0],
      "WindowWidth": [20134.0, 19984.0, 19959.0, 19943.0, 19926.0, 19930.0, 19931.0, 19944.0, 19925.0, 19919.0, 19920.0, 19907.0, 19909.0, 19928.0, 19940.0, 19957.0, 19943.0, 19904.0, 19894.0, 19897.0, 19914.0, 19901.0, 19919.0, 19936.0, 19941.0, 19972.0, 19977.0, 19967.0, 19956.0, 19918.0, 19907.0, 19902.0, 19900.0, 19903.0, 19917.0, 19936.0, 19931.0, 19934.0, 19956.0, 19994.0, 20012.0, 19996.0, 19975.0, 19952.0, 19924.0, 19912.0, 19902.0, 19899.0, 19892.0, 19891.0, 19930.0, 19927.0, 19946.0, 19946.0, 19951.0, 19934.0, 19949.0, 19936.0, 19939.0, 19944.0, 19944.0, 19954.0, 19963.0, 19964.0, 19968.0, 19971.0, 19965.0, 19942.0, 19951.0, 19947.0, 19972.0, 19994.0, 19998.0, 20013.0, 20017.0, 20009.0, 19999.0, 19996.0, 19997.0, 20003.0, 20001.0, 19997.0, 19995.0, 20007.0, 20021.0, 19997.0, 19997.0, 20011.0, 20011.0, 20009.0, 20004.0, 19992.0, 19982.0, 19959.0, 19950.0, 19959.0, 19973.0, 19997.0, 19987.0, 19998.0, 19989.0, 19967.0, 19968.0, 19963.0, 19974.0, 19979.0, 20003.0, 20001.0, 19973.0, 19972.0, 19964.0, 19949.0, 19946.0, 19923.0, 19926.0, 19917.0, 19936.0, 19947.0, 19954.0, 19982.0, 19989.0, 20012.0, 20012.0, 19995.0, 19983.0, 19968.0, 19947.0, 19944.0, 19931.0, 19952.0, 19951.0, 19969.0, 19979.0, 19991.0, 19972.0, 19980.0, 19969.0, 19953.0, 19950.0, 19941.0, 19949.0, 19940.0, 19959.0, 19974.0, 19973.0, 19986.0, 19987.0, 19972.0, 19977.0, 19995.0, 19983.0, 19985.0, 20011.0, 19984.0, 19985.0, 20001.0, 19981.0, 19970.0, 19975.0, 19953.0, 19959.0, 19944.0, 19947.0, 19967.0, 19941.0, 19956.0, 19952.0, 19936.0, 19921.0, 19908.0, 19915.0, 19958.0, 19991.0, 19985.0, 19995.0, 19949.0, 19896.0, 19889.0, 19904.0, 19904.0, 19930.0, 19941.0, 19943.0, 19942.0, 19953.0, 19942.0, 19947.0, 19990.0, 19991.0, 20010.0, 19996.0, 19995.0, 19991.0, 19970.0, 19956.0, 19962.0, 19946.0, 19937.0, 19946.0, 19950.0, 19964.0, 19971.0, 19980.0, 20003.0, 20015.0, 20003.0, 19987.0, 19981.0, 19966.0, 19957.0, 19969.0, 19966.0, 19967.0, 19968.0, 19947.0, 19949.0, 19953.0, 19931.0, 19931.0, 19933.0, 19932.0, 19953.0, 19953.0, 19952.0, 19962.0, 19960.0, 19959.0, 19944.0, 19945.0, 19918.0, 19916.0, 19934.0, 19936.0, 19944.0, 19968.0, 19985.0, 19997.0, 19996.0, 19965.0, 19954.0, 19941.0, 19917.0, 19928.0, 19945.0, 19956.0, 19978.0, 19977.0, 19976.0, 19978.0, 19938.0, 19945.0, 19954.0, 19953.0, 19958.0, 19943.0, 19925.0, 19943.0, 19931.0, 19933.0, 19933.0, 19927.0, 19925.0, 19919.0, 19929.0]
    },
    "slices": {}
  },
  "NumberOfVolumes": 264
}