{
  "AcquisitionMatrixPE": 104,
  "AcquisitionNumber": 1,
  "AcquisitionTime": "13:48:52.435000",
  "BandwidthPerPixelPhaseEncode": 16.578,
  "BaseResolution": 104,
  "BodyPartExamined": "BRAIN",
  "ConsistencyInfo": "N4_VE11C_LATEST_20160120",
  "ConversionSoftware": "dcm2niix",
  "ConversionSoftwareVersion": "v1.0.20190410  GCC6.3.0",
  "DerivedVendorReportedEchoSpacing": 0.000580009,
  "DeviceSerialNumber": "166018",
  "DwellTime": 2.1e-06,
  "EchoTime": 0.037,
  "EchoTrainLength": 104,
  "EffectiveEchoSpacing": 0.000580009,
  "FlipAngle": 68,
  "ImageComments": "Unaliased_MB6_PE3_LB",
  "ImageOrientationPatientDICOM": [0.999634, -0.0188691, 0.0193913, 0.0235577, 0.959487, -0.280768],
  "ImageType": [
    "ORIGINAL",
    "PRIMARY",
    "M",
    "MB",
    "ND",
    "MOSAIC"
],
  "ImagingFrequency": 123.191,
  "InPlanePhaseEncodingDirectionDICOM": "COL",
  "InstitutionAddress": "Washington_Place_6_NYC_NYC_US_10003",
  "InstitutionName": "NYU_Center_for_Brain_Imaging",
  "InstitutionalDepartmentName": "Department",
  "MRAcquisitionType": "2D",
  "MagneticFieldStrength": 3,
  "Manufacturer": "Siemens",
  "ManufacturersModelName": "Prisma",
  "Modality": "MR",
  "MultibandAccelerationFactor": 6,
  "PartialFourier": 1,
  "PatientPosition": "HFS",
  "PercentPhaseFOV": 100,
  "PhaseEncodingDirection": "j",
  "PhaseEncodingSteps": 104,
  "PhaseResolution": 1,
  "PixelBandwidth": 2290,
  "ProcedureStepDescription": "Investigators_Winawer",
  "ProtocolName": "task-sfprescaled_cmrr_mbepi_s6_2mm_66sl_PA_TR1.0",
  "PulseSequenceDetails": "%CustomerSeq%_cmrr_mbep2d_bold",
  "ReceiveCoilActiveElements": "HC1-7",
  "ReceiveCoilName": "HeadNeck_64",
  "ReconMatrixPE": 104,
  "RepetitionTime": 1,
  "SAR": 0.0564105,
  "ScanOptions": "FS",
  "ScanningSequence": "EP",
  "SequenceName": "epfid2d1_104",
  "SequenceVariant": "SK_SS",
  "SeriesDescription": "task-sfprescaled_cmrr_mbepi_s6_2mm_66sl_PA_TR1.0",
  "SeriesNumber": 10,
  "ShimSetting": [232, -12605, -8478, 466, -34, 92, -173, 55],
  "SliceThickness": 2,
  "SliceTiming": [0, 0.535, 0.09, 0.625, 0.18, 0.715, 0.2675, 0.8025, 0.3575, 0.8925, 0.4475, 0, 0.535, 0.09, 0.625, 0.18, 0.715, 0.2675, 0.8025, 0.3575, 0.8925, 0.4475, 0, 0.535, 0.09, 0.625, 0.18, 0.715, 0.2675, 0.8025, 0.3575, 0.8925, 0.4475, 0, 0.535, 0.09, 0.625, 0.18, 0.715, 0.2675, 0.8025, 0.3575, 0.8925, 0.4475, 0, 0.535, 0.09, 0.625, 0.18, 0.715, 0.2675, 0.8025, 0.3575, 0.8925, 0.4475, 0, 0.535, 0.09, 0.625, 0.18, 0.715, 0.2675, 0.8025, 0.3575, 0.8925, 0.4475],
  "SoftwareVersions": "syngo_MR_E11",
  "SpacingBetweenSlices": 2,
  "StationName": "AWP166018",
  "TaskName": "sfprescaled",
  "TotalReadoutTime": 0.0597409,
  "TxRefAmp": 209.628,
  "WipMemBlock": "ce706ca7-c0e3-4c80-920e-365af659f99b||Sequence: R016 ve11c/master r/8780670; Nov 27 2017 15:05:12 by eja",
  "dcmmeta_affine": [
    [-1.999267816543579, 0.04711548238992691, 0.026615776121616364, 107.22503662109375],
    [0.03773821145296097, 1.9189730882644653, -0.5622437596321106, -71.80593872070312],
    [0.038782671093940735, 0.5615357160568237, 1.9191596508026123, -70.48042297363281],
    [0.0, 0.0, 0.0, 1.0]
],
  "dcmmeta_reorient_transform": [
    [0.0, -1.0, 0.0, 103.0],
    [1.0, 0.0, 0.0, 0.0],
    [0.0, 0.0, 1.0, 0.0],
    [0.0, 0.0, 0.0, 1.0]
],
  "dcmmeta_shape": [104, 104, 66, 264],
  "dcmmeta_slice_dim": 2,
  "dcmmeta_version": 0.6,
  "global": {
    "const": {
      "AccessionNumber": "juLLg1bg",
  "NumberOfVolumes": 264,
      "AcquisitionMatrix": [104, 0, 0, 104],
      "AngioFlag": "N",
      "BitsAllocated": 16,
      "BitsStored": 16,
      "BodyPartExamined": "BRAIN",
      "Columns": 936,
      "EchoNumbers": 1,
      "EchoTime": 37.0,
      "EchoTrainLength": 104,
      "FlipAngle": 68.0,
      "HighBit": 15,
      "ImageOrientationPatient": [0.99963389946681, -0.0188691054203, 0.01939133562749, 0.02355774109317, 0.95948655306514, -0.2807678530775],
      "ImagePositionPatient": [-963.37337831453, -908.44201127205, 204.82301902709],
      "ImageType": [
        "ORIGINAL",
        "PRIMARY",
        "M",
        "MB",
        "ND",
        "MOSAIC"
],
      "ImagedNucleus": "1H",
      "ImagingFrequency": 123.190861,
      "InPlanePhaseEncodingDirection": "COL",
      "MRAcquisitionType": "2D",
      "MagneticFieldStrength": 3.0,
      "Manufacturer": "SIEMENS",
      "ManufacturerModelName": "Prisma",
      "Modality": "MR",
      "NumberOfAverages": 1.0,
      "NumberOfPhaseEncodingSteps": 104,
      "PercentPhaseFieldOfView": 100.0,
      "PercentSampling": 100.0,
      "PerformedProcedureStepStartTime": "133436.477000",
      "PhotometricInterpretation": "MONOCHROME2",
      "PixelBandwidth": 2290.0,
      "PixelRepresentation": 0,
      "PixelSpacing": [2.0, 2.0],
      "ProtocolName": "task-sfprescaled_cmrr_mbepi_s6_2mm_66sl_PA_TR1.0",
      "RepetitionTime": 1000.0,
      "Rows": 936,
      "SAR": 0.05641051860443,
      "SamplesPerPixel": 1,
      "ScanOptions": "FS",
      "ScanningSequence": "EP",
      "SequenceName": "epfid2d1_104",
      "SequenceVariant": [
        "SK",
        "SS"
],
      "SeriesDescription": "task-sfprescaled_cmrr_mbepi_s6_2mm_66sl_PA_TR1.0",
      "SeriesNumber": 10,
      "SeriesTime": "134948.145000",
      "SliceLocation": -46.01843014342,
      "SliceThickness": 2.0,
      "SmallestImagePixelValue": 0,
      "SoftwareVersions": "syngo MR E11",
      "SpacingBetweenSlices": 2.0000000409259,
      "SpecificCharacterSet": "ISO_IR 100",
      "StudyID": "2",
      "StudyTime": "133436.380000",
      "TransmitCoilName": "Body",
      "VariableFlipAngleFlag": "N",
      "WindowCenterWidthExplanation": "Algo1",
      "dBdt": 0.0},
    "slices": {}
  },
  "time": {
    "samples": {
      "AcquisitionNumber": [1, 2, 3, 4, 5, 6, 7, 8, 9, 10, 11, 12, 13, 14, 15, 16, 17, 18, 19, 20, 21, 22, 23, 24, 25, 26, 27, 28, 29, 30, 31, 32, 33, 34, 35, 36, 37, 38, 39, 40, 41, 42, 43, 44, 45, 46, 47, 48, 49, 50, 51, 52, 53, 54, 55, 56, 57, 58, 59, 60, 61, 62, 63, 64, 65, 66, 67, 68, 69, 70, 71, 72, 73, 74, 75, 76, 77, 78, 79, 80, 81, 82, 83, 84, 85, 86, 87, 88, 89, 90, 91, 92, 93, 94, 95, 96, 97, 98, 99, 100, 101, 102, 103, 104, 105, 106, 107, 108, 109, 110, 111, 112, 113, 114, 115, 116, 117, 118, 119, 120, 121, 122, 123, 124, 125, 126, 127, 128, 129, 130, 131, 132, 133, 134, 135, 136, 137, 138, 139, 140, 141, 142, 143, 144, 145, 146, 147, 148, 149, 150, 151, 152, 153, 154, 155, 156, 157, 158, 159, 160, 161, 162, 163, 164, 165, 166, 167, 168, 169, 170, 171, 172, 173, 174, 175, 176, 177, 178, 179, 180, 181, 182, 183, 184, 185, 186, 187, 188, 189, 190, 191, 192, 193, 194, 195, 196, 197, 198, 199, 200, 201, 202, 203, 204, 205, 206, 207, 208, 209, 210, 211, 212, 213, 214, 215, 216, 217, 218, 219, 220, 221, 222, 223, 224, 225, 226, 227, 228, 229, 230, 231, 232, 233, 234, 235, 236, 237, 238, 239, 240, 241, 242, 243, 244, 245, 246, 247, 248, 249, 250, 251, 252, 253, 254, 255, 256, 257, 258, 259, 260, 261, 262, 263, 264],
      "AcquisitionTime": ["134852.435000", "134853.435000", "134854.435000", "134855.435000", "134856.435000", "134857.435000", "134858.435000", "134859.435000", "134900.435000", "134901.435000", "134902.435000", "134903.435000", "134904.435000", "134905.435000", "134906.435000", "134907.435000", "134908.435000", "134909.435000", "134910.435000", "134911.435000", "134912.435000", "134913.435000", "134914.435000", "134915.435000", "134916.435000", "134917.435000", "134918.435000", "134919.435000", "134920.435000", "134921.435000", "134922.435000", "134923.435000", "134924.435000", "134925.435000", "134926.435000", "134927.435000", "134928.435000", "134929.435000", "134930.435000", "134931.435000", "134932.435000", "134933.435000", "134934.435000", "134935.435000", "134936.435000", "134937.435000", "134938.435000", "134939.435000", "134940.435000", "134941.435000", "134942.435000", "134943.435000", "134944.435000", "134945.435000", "134946.435000", "134947.435000", "134948.435000", "134949.435000", "134950.435000", "134951.435000", "134952.435000", "134953.435000", "134954.435000", "134955.435000", "134956.435000", "134957.435000", "134958.435000", "134959.435000", "135000.435000", "135001.435000", "135002.435000", "135003.435000", "135004.435000", "135005.435000", "135006.435000", "135007.435000", "135008.435000", "135009.435000", "135010.435000", "135011.435000", "135012.435000", "135013.435000", "135014.435000", "135015.435000", "135016.435000", "135017.435000", "135018.435000", "135019.435000", "135020.435000", "135021.435000", "135022.435000", "135023.435000", "135024.435000", "135025.435000", "135026.435000", "135027.435000", "135028.435000", "135029.435000", "135030.435000", "135031.435000", "135032.435000", "135033.435000", "135034.435000", "135035.435000", "135036.435000", "135037.435000", "135038.435000", "135039.435000", "135040.435000", "135041.435000", "135042.435000", "135043.435000", "135044.435000", "135045.435000", "135046.435000", "135047.435000", "135048.435000", "135049.435000", "135050.435000", "135051.435000", "135052.435000", "135053.435000", "135054.435000", "135055.435000", "135056.435000", "135057.435000", "135058.435000", "135059.435000", "135100.435000", "135101.435000", "135102.435000", "135103.435000", "135104.435000", "135105.435000", "135106.435000", "135107.435000", "135108.435000", "135109.435000", "135110.435000", "135111.435000", "135112.435000", "135113.435000", "135114.435000", "135115.435000", "135116.435000", "135117.435000", "135118.435000", "135119.435000", "135120.435000", "135121.435000", "135122.435000", "135123.435000", "135124.435000", "135125.435000", "135126.435000", "135127.435000", "135128.435000", "135129.435000", "135130.435000", "135131.435000", "135132.435000", "135133.435000", "135134.435000", "135135.435000", "135136.435000", "135137.435000", "135138.435000", "135139.435000", "135140.435000", "135141.435000", "135142.435000", "135143.435000", "135144.435000", "135145.435000", "135146.435000", "135147.435000", "135148.435000", "135149.435000", "135150.435000", "135151.435000", "135152.435000", "135153.435000", "135154.435000", "135155.435000", "135156.435000", "135157.435000", "135158.435000", "135159.435000", "135200.435000", "135201.435000", "135202.435000", "135203.435000", "135204.435000", "135205.435000", "135206.435000", "135207.435000", "135208.435000", "135209.435000", "135210.435000", "135211.435000", "135212.435000", "135213.435000", "135214.435000", "135215.435000", "135216.435000", "135217.435000", "135218.435000", "135219.435000", "135220.435000", "135221.435000", "135222.435000", "135223.435000", "135224.435000", "135225.435000", "135226.435000", "135227.435000", "135228.435000", "135229.435000", "135230.435000", "135231.435000", "135232.435000", "135233.435000", "135234.435000", "135235.435000", "135236.435000", "135237.435000", "135238.435000", "135239.435000", "135240.435000", "135241.435000", "135242.435000", "135243.435000", "135244.435000", "135245.435000", "135246.435000", "135247.435000", "135248.435000", "135249.435000", "135250.435000", "135251.435000", "135252.435000", "135253.435000", "135254.435000", "135255.435000", "135256.435000", "135257.435000", "135258.435000", "135259.435000", "135300.435000", "135301.435000", "135302.435000", "135303.435000", "135304.435000", "135305.435000", "135306.435000", "135307.435000", "135308.435000", "135309.435000", "135310.435000", "135311.435000", "135312.435000", "135313.435000", "135314.435000", "135315.435000"],
      "ContentTime": ["134948.148000", "134948.159000", "134948.162000", "134953.117000", "134953.126000", "134953.129000", "134953.132000", "134953.135000", "134953.138000", "134953.141000", "134958.117000", "134958.120000", "134958.123000", "134958.126000", "134958.129000", "134958.132000", "134958.135000", "135003.117000", "135003.120000", "135003.123000", "135003.126000", "135003.129000", "135003.132000", "135003.135000", "135008.117000", "135008.120000", "135008.123000", "135008.126000", "135008.129000", "135008.132000", "135008.135000", "135013.117000", "135013.121000", "135013.126000", "135013.129000", "135013.132000", "135013.135000", "135013.138000", "135018.117000", "135018.120000", "135018.123000", "135018.126000", "135018.129000", "135018.132000", "135018.135000", "135018.138000", "135023.117000", "135023.120000", "135023.123000", "135023.126000", "135023.129000", "135023.132000", "135023.135000", "135028.117000", "135028.120000", "135028.126000", "135028.129000", "135028.132000", "135028.135000", "135028.138000", "135033.117000", "135033.120000", "135033.123000", "135033.126000", "135033.129000", "135033.138000", "135033.141000", "135038.117000", "135038.120000", "135038.123000", "135038.126000", "135038.129000", "135038.132000", "135038.135000", "135043.117000", "135043.120000", "135043.123000", "135043.131000", "135043.134000", "135043.137000", "135043.140000", "135048.117000", "135048.120000", "135048.123000", "135048.126000", "135048.129000", "135048.132000", "135048.135000", "135053.117000", "135053.120000", "135053.123000", "135053.126000", "135053.129000", "135053.132000", "135053.135000", "135058.117000", "135058.120000", "135058.123000", "135058.126000", "135058.129000", "135058.132000", "135058.135000", "135103.117000", "135103.120000", "135103.123000", "135103.126000", "135103.129000", "135103.132000", "135103.135000", "135108.117000", "135108.120000", "135108.123000", "135108.127000", "135108.131000", "135108.136000", "135108.139000", "135113.117000", "135113.120000", "135113.123000", "135113.126000", "135113.129000", "135113.132000", "135113.135000", "135118.117000", "135118.120000", "135118.123000", "135118.126000", "135118.129000", "135118.132000", "135118.135000", "135118.138000", "135123.117000", "135123.120000", "135123.123000", "135123.126000", "135123.138000", "135123.141000", "135123.144000", "135128.117000", "135128.120000", "135128.123000", "135128.126000", "135128.129000", "135128.132000", "135128.135000", "135133.117000", "135133.120000", "135133.123000", "135133.126000", "135133.129000", "135133.132000", "135133.135000", "135138.117000", "135138.125000", "135138.128000", "135138.131000", "135138.134000", "135138.137000", "135138.140000", "135143.117000", "135143.120000", "135143.123000", "135143.126000", "135143.129000", "135143.132000", "135143.135000", "135148.117000", "135148.120000", "135148.123000", "135148.126000", "135148.129000", "135148.132000", "135148.135000", "135153.117000", "135153.120000", "135153.123000", "135153.126000", "135153.129000", "135153.132000", "135158.117000", "135158.120000", "135158.123000", "135158.126000", "135158.129000", "135203.117000", "135203.120000", "135203.123000", "135203.126000", "135203.129000", "135208.117000", "135208.120000", "135208.123000", "135208.126000", "135208.129000", "135213.117000", "135213.120000", "135213.123000", "135213.126000", "135213.129000", "135218.117000", "135218.120000", "135218.123000", "135218.126000", "135218.129000", "135223.117000", "135223.120000", "135223.123000", "135223.132000", "135223.135000", "135228.117000", "135228.120000", "135228.123000", "135228.126000", "135228.129000", "135233.117000", "135233.120000", "135233.123000", "135233.126000", "135233.129000", "135238.117000", "135238.120000", "135238.123000", "135238.126000", "135238.129000", "135243.117000", "135243.120000", "135243.123000", "135243.126000", "135243.129000", "135248.117000", "135248.120000", "135248.123000", "135248.126000", "135248.129000", "135253.117000", "135253.120000", "135253.123000", "135253.126000", "135253.129000", "135258.117000", "135258.120000", "135258.123000", "135258.126000", "135258.129000", "135303.117000", "135303.120000", "135303.123000", "135303.126000", "135303.129000", "135308.117000", "135308.120000", "135308.123000", "135308.126000", "135308.129000", "135313.117000", "135313.120000", "135313.123000", "135313.126000", "135313.129000", "135317.477000", "135317.480000", "135317.483000", "135317.486000", "135317.489000"],
      "InstanceCreationTime": ["134948.148000", "134948.159000", "134948.162000", "134953.117000", "134953.126000", "134953.129000", "134953.132000", "134953.135000", "134953.138000", "134953.141000", "134958.117000", "134958.120000", "134958.123000", "134958.126000", "134958.129000", "134958.132000", "134958.135000", "135003.117000", "135003.120000", "135003.123000", "135003.126000", "135003.129000", "135003.132000", "135003.135000", "135008.117000", "135008.120000", "135008.123000", "135008.126000", "135008.129000", "135008.132000", "135008.135000", "135013.117000", "135013.121000", "135013.126000", "135013.129000", "135013.132000", "135013.135000", "135013.138000", "135018.117000", "135018.120000", "135018.123000", "135018.126000", "135018.129000", "135018.132000", "135018.135000", "135018.138000", "135023.117000", "135023.120000", "135023.123000", "135023.126000", "135023.129000", "135023.132000", "135023.135000", "135028.117000", "135028.120000", "135028.126000", "135028.129000", "135028.132000", "135028.135000", "135028.138000", "135033.117000", "135033.120000", "135033.123000", "135033.126000", "135033.129000", "135033.138000", "135033.141000", "135038.117000", "135038.120000", "135038.123000", "135038.126000", "135038.129000", "135038.132000", "135038.135000", "135043.117000", "135043.120000", "135043.123000", "135043.131000", "135043.134000", "135043.137000", "135043.140000", "135048.117000", "135048.120000", "135048.123000", "135048.126000", "135048.129000", "135048.132000", "135048.135000", "135053.117000", "135053.120000", "135053.123000", "135053.126000", "135053.129000", "135053.132000", "135053.135000", "135058.117000", "135058.120000", "135058.123000", "135058.126000", "135058.129000", "135058.132000", "135058.135000", "135103.117000", "135103.120000", "135103.123000", "135103.126000", "135103.129000", "135103.132000", "135103.135000", "135108.117000", "135108.120000", "135108.123000", "135108.127000", "135108.131000", "135108.136000", "135108.139000", "135113.117000", "135113.120000", "135113.123000", "135113.126000", "135113.129000", "135113.132000", "135113.135000", "135118.117000", "135118.120000", "135118.123000", "135118.126000", "135118.129000", "135118.132000", "135118.135000", "135118.138000", "135123.117000", "135123.120000", "135123.123000", "135123.126000", "135123.138000", "135123.141000", "135123.144000", "135128.117000", "135128.120000", "135128.123000", "135128.126000", "135128.129000", "135128.132000", "135128.135000", "135133.117000", "135133.120000", "135133.123000", "135133.126000", "135133.129000", "135133.132000", "135133.135000", "135138.117000", "135138.125000", "135138.128000", "135138.131000", "135138.134000", "135138.137000", "135138.140000", "135143.117000", "135143.120000", "135143.123000", "135143.126000", "135143.129000", "135143.132000", "135143.135000", "135148.117000", "135148.120000", "135148.123000", "135148.126000", "135148.129000", "135148.132000", "135148.135000", "135153.117000", "135153.120000", "135153.123000", "135153.126000", "135153.129000", "135153.132000", "135158.117000", "135158.120000", "135158.123000", "135158.126000", "135158.129000", "135203.117000", "135203.120000", "135203.123000", "135203.126000", "135203.129000", "135208.117000", "135208.120000", "135208.123000", "135208.126000", "135208.129000", "135213.117000", "135213.120000", "135213.123000", "135213.126000", "135213.129000", "135218.117000", "135218.120000", "135218.123000", "135218.126000", "135218.129000", "135223.117000", "135223.120000", "135223.123000", "135223.132000", "135223.135000", "135228.117000", "135228.120000", "135228.123000", "135228.126000", "135228.129000", "135233.117000", "135233.120000", "135233.123000", "135233.126000", "135233.129000", "135238.117000", "135238.120000", "135238.123000", "135238.126000", "135238.129000", "135243.117000", "135243.120000", "135243.123000", "135243.126000", "135243.129000", "135248.117000", "135248.120000", "135248.123000", "135248.126000", "135248.129000", "135253.117000", "135253.120000", "135253.123000", "135253.126000", "135253.129000", "135258.117000", "135258.120000", "135258.123000", "135258.126000", "135258.129000", "135303.117000", "135303.120000", "135303.123000", "135303.126000", "135303.129000", "135308.117000", "135308.120000", "135308.123000", "135308.126000", "135308.129000", "135313.117000", "135313.120000", "135313.123000", "135313.126000", "135313.129000", "135317.477000", "135317.480000", "135317.483000", "135317.486000", "135317.489000"],
      "InstanceNumber": [1, 2, 3, 4, 5, 6, 7, 8, 9, 10, 11, 12, 13, 14, 15, 16, 17, 18, 19, 20, 21, 22, 23, 24, 25, 26, 27, 28, 29, 30, 31, 32, 33, 34, 35, 36, 37, 38, 39, 40, 41, 42, 43, 44, 45, 46, 47, 48, 49, 50, 51, 52, 53, 54, 55, 56, 57, 58, 59, 60, 61, 62, 63, 64, 65, 66, 67, 68, 69, 70, 71, 72, 73, 74, 75, 76, 77, 78, 79, 80, 81, 82, 83, 84, 85, 86, 87, 88, 89, 90, 91, 92, 93, 94, 95, 96, 97, 98, 99, 100, 101, 102, 103, 104, 105, 106, 107, 108, 109, 110, 111, 112, 113, 114, 115, 116, 117, 118, 119, 120, 121, 122, 123, 124, 125, 126, 127, 128, 129, 130, 131, 132, 133, 134, 135, 136, 137, 138, 139, 140, 141, 142, 143, 144, 145, 146, 147, 148, 149, 150, 151, 152, 153, 154, 155, 156, 157, 158, 159, 160, 161, 162, 163, 164, 165, 166, 167, 168, 169, 170, 171, 172, 173, 174, 175, 176, 177, 178, 179, 180, 181, 182, 183, 184, 185, 186, 187, 188, 189, 190, 191, 192, 193, 194, 195, 196, 197, 198, 199, 200, 201, 202, 203, 204, 205, 206, 207, 208, 209, 210, 211, 212, 213, 214, 215, 216, 217, 218, 219, 220, 221, 222, 223, 224, 225, 226, 227, 228, 229, 230, 231, 232, 233, 234, 235, 236, 237, 238, 239, 240, 241, 242, 243, 244, 245, 246, 247, 248, 249, 250, 251, 252, 253, 254, 255, 256, 257, 258, 259, 260, 261, 262, 263, 264],
      "LargestImagePixelValue": [31493, 31603, 30537, 30765, 30737, 30472, 30205, 30028, 29555, 29596, 29906, 29864, 29787, 30214, 30024, 30130, 29728, 29904, 29557, 29449, 29905, 29796, 29743, 30222, 30840, 30572, 30893, 30718, 30156, 30657, 30469, 30397, 30710, 30619, 30687, 30139, 29817, 30002, 30134, 30570, 30091, 30420, 29897, 30435, 29996, 30286, 30902, 30598, 30332, 30234, 30123, 30306, 31097, 30547, 30443, 30639, 30030, 29763, 29921, 30198, 30090, 29959, 29941, 30260, 30402, 29800, 30091, 29997, 30286, 30727, 30309, 31205, 31026, 30274, 29860, 30263, 30101, 29973, 30297, 30165, 30050, 30282, 30177, 30257, 31002, 30372, 30277, 30392, 30263, 30245, 30384, 30807, 30066, 30337, 30439, 30264, 29906, 30141, 30181, 30004, 30689, 30594, 30679, 30329, 30850, 30950, 30330, 30323, 29972, 29968, 30475, 30326, 30623, 30675, 30404, 30331, 30479, 30306, 29897, 30226, 30166, 30677, 30761, 30872, 30618, 29790, 29898, 29752, 29792, 30501, 29694, 30287, 30769, 30507, 30702, 30642, 30676, 31064, 30937, 30583, 30300, 30442, 30244, 30328, 30721, 30303, 30488, 30671, 30688, 30103, 30794, 30344, 30338, 30754, 31095, 30781, 30800, 30275, 30069, 30057, 30094, 30479, 30464, 30587, 29835, 30542, 30471, 30305, 30665, 30796, 30193, 30275, 30731, 29926, 30499, 30875, 30317, 30276, 30835, 30914, 30812, 30544, 30880, 30522, 30935, 30203, 30933, 30915, 31011, 30319, 30312, 30591, 30956, 30130, 30920, 30324, 29706, 30600, 30284, 30007, 31176, 30819, 30530, 30830, 30298, 30374, 30641, 30787, 30693, 31639, 30957, 30375, 30962, 30595, 30954, 30800, 30396, 30605, 30355, 30007, 30436, 30189, 30247, 30888, 30670, 30315, 30535, 30693, 30210, 30988, 30998, 30533, 30669, 30462, 30229, 30755, 31384, 30497, 30874, 30771, 30104, 31159, 30153, 30045, 29733, 30063, 30290, 30544, 30471, 30183, 30045, 29935, 29791, 29754, 30316, 30155, 30278, 30486, 29753, 29981, 29733, 30162, 30391, 30407],
      "WindowCenter": [9766.0, 9749.0, 9717.0, 9729.0, 9721.0, 9711.0, 9705.0, 9690.0, 9684.0, 9679.0, 9675.0, 9675.0, 9675.0, 9680.0, 9669.0, 9662.0, 9657.0, 9657.0, 9665.0, 9661.0, 9664.0, 9669.0, 9666.0, 9678.0, 9683.0, 9693.0, 9702.0, 9702.0, 9699.0, 9710.0, 9697.0, 9695.0, 9701.0, 9699.0, 9700.0, 9689.0, 9683.0, 9696.0, 9697.0, 9700.0, 9696.0, 9704.0, 9685.0, 9695.0, 9691.0, 9688.0, 9700.0, 9702.0, 9695.0, 9696.0, 9699.0, 9704.0, 9725.0, 9721.0, 9713.0, 9712.0, 9700.0, 9686.0, 9690.0, 9697.0, 9704.0, 9704.0, 9701.0, 9704.0, 9704.0, 9693.0, 9691.0, 9690.0, 9705.0, 9724.0, 9727.0, 9740.0, 9728.0, 9712.0, 9695.0, 9697.0, 9682.0, 9687.0, 9694.0, 9693.0, 9703.0, 9714.0, 9715.0, 9721.0, 9733.0, 9721.0, 9719.0, 9721.0, 9713.0, 9712.0, 9715.0, 9719.0, 9716.0, 9723.0, 9727.0, 9729.0, 9711.0, 9707.0, 9700.0, 9698.0, 9708.0, 9719.0, 9726.0, 9728.0, 9737.0, 9740.0, 9727.0, 9722.0, 9709.0, 9714.0, 9736.0, 9737.0, 9743.0, 9737.0, 9720.0, 9705.0, 9712.0, 9711.0, 9701.0, 9716.0, 9714.0, 9724.0, 9746.0, 9725.0, 9741.0, 9710.0, 9705.0, 9700.0, 9692.0, 9696.0, 9693.0, 9713.0, 9726.0, 9737.0, 9746.0, 9740.0, 9738.0, 9736.0, 9725.0, 9713.0, 9715.0, 9714.0, 9723.0, 9723.0, 9719.0, 9713.0, 9713.0, 9717.0, 9712.0, 9707.0, 9711.0, 9713.0, 9715.0, 9718.0, 9718.0, 9712.0, 9702.0, 9697.0, 9707.0, 9708.0, 9716.0, 9723.0, 9720.0, 9718.0, 9696.0, 9699.0, 9698.0, 9713.0, 9729.0, 9729.0, 9717.0, 9710.0, 9710.0, 9699.0, 9697.0, 9701.0, 9697.0, 9704.0, 9715.0, 9723.0, 9718.0, 9714.0, 9727.0, 9708.0, 9715.0, 9707.0, 9721.0, 9728.0, 9746.0, 9744.0, 9725.0, 9711.0, 9707.0, 9697.0, 9704.0, 9689.0, 9685.0, 9707.0, 9699.0, 9709.0, 9733.0, 9742.0, 9738.0, 9737.0, 9725.0, 9723.0, 9720.0, 9733.0, 9729.0, 9736.0, 9726.0, 9722.0, 9739.0, 9737.0, 9747.0, 9735.0, 9730.0, 9720.0, 9713.0, 9709.0, 9712.0, 9708.0, 9722.0, 9740.0, 9736.0, 9732.0, 9731.0, 9736.0, 9727.0, 9740.0, 9732.0, 9724.0, 9728.0, 9730.0, 9726.0, 9729.0, 9739.0, 9730.0, 9727.0, 9727.0, 9711.0, 9729.0, 9700.0, 9695.0, 9677.0, 9683.0, 9697.0, 9711.0, 9722.0, 9719.0, 9711.0, 9702.0, 9693.0, 9676.0, 9686.0, 9691.0, 9697.0, 9698.0, 9689.0, 9690.0, 9677.0, 9686.0, 9694.0, 9710.0],
      "WindowWidth": [20905.0, 20851.0, 20785.0, 20805.0, 20782.0, 20759.0, 20743.0, 20706.0, 20698.0, 20689.0, 20675.0, 20679.0, 20680.0, 20686.0, 20659.0, 20642.0, 20633.0, 20634.0, 20651.0, 20646.0, 20649.0, 20657.0, 20654.0, 20680.0, 20692.0, 20716.0, 20738.0, 20742.0, 20739.0, 20756.0, 20731.0, 20725.0, 20734.0, 20730.0, 20731.0, 20711.0, 20702.0, 20729.0, 20726.0, 20732.0, 20727.0, 20740.0, 20706.0, 20724.0, 20715.0, 20708.0, 20731.0, 20738.0, 20721.0, 20728.0, 20734.0, 20746.0, 20790.0, 20784.0, 20766.0, 20762.0, 20735.0, 20708.0, 20713.0, 20725.0, 20740.0, 20743.0, 20741.0, 20744.0, 20746.0, 20725.0, 20717.0, 20716.0, 20747.0, 20786.0, 20799.0, 20821.0, 20794.0, 20763.0, 20728.0, 20726.0, 20696.0, 20703.0, 20717.0, 20720.0, 20742.0, 20768.0, 20773.0, 20786.0, 20807.0, 20784.0, 20779.0, 20783.0, 20765.0, 20764.0, 20771.0, 20780.0, 20776.0, 20788.0, 20797.0, 20802.0, 20765.0, 20752.0, 20737.0, 20732.0, 20752.0, 20780.0, 20796.0, 20803.0, 20824.0, 20827.0, 20799.0, 20786.0, 20757.0, 20766.0, 20814.0, 20822.0, 20834.0, 20816.0, 20780.0, 20748.0, 20762.0, 20759.0, 20745.0, 20776.0, 20770.0, 20790.0, 20838.0, 20795.0, 20826.0, 20758.0, 20744.0, 20733.0, 20714.0, 20722.0, 20721.0, 20763.0, 20795.0, 20820.0, 20841.0, 20830.0, 20823.0, 20813.0, 20787.0, 20763.0, 20769.0, 20768.0, 20787.0, 20785.0, 20773.0, 20762.0, 20761.0, 20769.0, 20762.0, 20751.0, 20758.0, 20765.0, 20769.0, 20772.0, 20772.0, 20759.0, 20735.0, 20727.0, 20751.0, 20755.0, 20773.0, 20789.0, 20777.0, 20772.0, 20729.0, 20730.0, 20730.0, 20763.0, 20799.0, 20804.0, 20779.0, 20759.0, 20756.0, 20732.0, 20726.0, 20733.0, 20728.0, 20740.0, 20765.0, 20781.0, 20772.0, 20770.0, 20794.0, 20755.0, 20765.0, 20750.0, 20773.0, 20786.0, 20831.0, 20832.0, 20790.0, 20753.0, 20740.0, 20722.0, 20733.0, 20707.0, 20703.0, 20741.0, 20732.0, 20756.0, 20807.0, 20828.0, 20823.0, 20819.0, 20795.0, 20786.0, 20782.0, 20809.0, 20800.0, 20809.0, 20791.0, 20785.0, 20819.0, 20819.0, 20835.0, 20813.0, 20802.0, 20776.0, 20764.0, 20757.0, 20762.0, 20756.0, 20788.0, 20823.0, 20817.0, 20807.0, 20805.0, 20818.0, 20800.0, 20822.0, 20807.0, 20794.0, 20797.0, 20804.0, 20799.0, 20802.0, 20819.0, 20802.0, 20793.0, 20793.0, 20760.0, 20792.0, 20734.0, 20726.0, 20686.0, 20693.0, 20722.0, 20755.0, 20784.0, 20779.0, 20760.0, 20736.0, 20714.0, 20674.0, 20693.0, 20711.0, 20722.0, 20727.0, 20709.0, 20706.0, 20681.0, 20696.0, 20710.0, 20753.0]
    },
    "slices": {}
  }
}