{
  "AcquisitionMatrixPE": 104,
  "AcquisitionNumber": 1,
  "AcquisitionTime": "14:43:52.580000",
  "BandwidthPerPixelPhaseEncode": 16.578,
  "BaseResolution": 104,
  "BodyPartExamined": "BRAIN",
  "ConsistencyInfo": "N4_VE11C_LATEST_20160120",
  "ConversionSoftware": "dcm2niix",
  "ConversionSoftwareVersion": "v1.0.20190410  GCC6.3.0",
  "DerivedVendorReportedEchoSpacing": 0.000580009,
  "DeviceSerialNumber": "166018",
  "DwellTime": 2.1e-06,
  "EchoTime": 0.037,
  "EchoTrainLength": 104,
  "EffectiveEchoSpacing": 0.000580009,
  "FlipAngle": 68,
  "ImageComments": "Unaliased_MB6_PE3_LB",
  "ImageOrientationPatientDICOM": [0.999634, -0.0188691, 0.0193913, 0.0235577, 0.959487, -0.280768],
  "ImageType": [
    "ORIGINAL",
    "PRIMARY",
    "M",
    "MB",
    "ND",
    "MOSAIC"
],
  "ImagingFrequency": 123.191,
  "InPlanePhaseEncodingDirectionDICOM": "COL",
  "InstitutionAddress": "Washington_Place_6_NYC_NYC_US_10003",
  "InstitutionName": "NYU_Center_for_Brain_Imaging",
  "InstitutionalDepartmentName": "Department",
  "MRAcquisitionType": "2D",
  "MagneticFieldStrength": 3,
  "Manufacturer": "Siemens",
  "ManufacturersModelName": "Prisma",
  "Modality": "MR",
  "MultibandAccelerationFactor": 6,
  "PartialFourier": 1,
  "PatientPosition": "HFS",
  "PercentPhaseFOV": 100,
  "PhaseEncodingDirection": "j",
  "PhaseEncodingSteps": 104,
  "PhaseResolution": 1,
  "PixelBandwidth": 2290,
  "ProcedureStepDescription": "Investigators_Winawer",
  "ProtocolName": "task-sfprescaled_cmrr_mbepi_s6_2mm_66sl_PA_TR1.0",
  "PulseSequenceDetails": "%CustomerSeq%_cmrr_mbep2d_bold",
  "ReceiveCoilActiveElements": "HC1-7",
  "ReceiveCoilName": "HeadNeck_64",
  "ReconMatrixPE": 104,
  "RepetitionTime": 1,
  "SAR": 0.0564105,
  "ScanOptions": "FS",
  "ScanningSequence": "EP",
  "SequenceName": "epfid2d1_104",
  "SequenceVariant": "SK_SS",
  "SeriesDescription": "task-sfprescaled_cmrr_mbepi_s6_2mm_66sl_PA_TR1.0",
  "SeriesNumber": 32,
  "ShimSetting": [232, -12605, -8478, 466, -34, 92, -173, 55],
  "SliceThickness": 2,
  "SliceTiming": [0, 0.535, 0.09, 0.625, 0.18, 0.7125, 0.2675, 0.8025, 0.3575, 0.8925, 0.4475, 0, 0.535, 0.09, 0.625, 0.18, 0.7125, 0.2675, 0.8025, 0.3575, 0.8925, 0.4475, 0, 0.535, 0.09, 0.625, 0.18, 0.7125, 0.2675, 0.8025, 0.3575, 0.8925, 0.4475, 0, 0.535, 0.09, 0.625, 0.18, 0.7125, 0.2675, 0.8025, 0.3575, 0.8925, 0.4475, 0, 0.535, 0.09, 0.625, 0.18, 0.7125, 0.2675, 0.8025, 0.3575, 0.8925, 0.4475, 0, 0.535, 0.09, 0.625, 0.18, 0.7125, 0.2675, 0.8025, 0.3575, 0.8925, 0.4475],
  "SoftwareVersions": "syngo_MR_E11",
  "SpacingBetweenSlices": 2,
  "StationName": "AWP166018",
  "TaskName": "sfprescaled",
  "TotalReadoutTime": 0.0597409,
  "TxRefAmp": 209.628,
  "WipMemBlock": "ce706ca7-c0e3-4c80-920e-365af659f99b||Sequence: R016 ve11c/master r/8780670; Nov 27 2017 15:05:12 by eja",
  "dcmmeta_affine": [
    [-1.999267816543579, 0.04711548238992691, 0.026615776121616364, 107.22503662109375],
    [0.03773821145296097, 1.9189730882644653, -0.5622437596321106, -71.80593872070312],
    [0.038782671093940735, 0.5615357160568237, 1.9191596508026123, -70.48042297363281],
    [0.0, 0.0, 0.0, 1.0]
],
  "dcmmeta_reorient_transform": [
    [0.0, -1.0, 0.0, 103.0],
    [1.0, 0.0, 0.0, 0.0],
    [0.0, 0.0, 1.0, 0.0],
    [0.0, 0.0, 0.0, 1.0]
],
  "dcmmeta_shape": [104, 104, 66, 264],
  "dcmmeta_slice_dim": 2,
  "dcmmeta_version": 0.6,
  "global": {
    "const": {
      "AccessionNumber": "juLLg1bg",
  "NumberOfVolumes": 264,
      "AcquisitionMatrix": [104, 0, 0, 104],
      "AngioFlag": "N",
      "BitsAllocated": 16,
      "BitsStored": 16,
      "BodyPartExamined": "BRAIN",
      "Columns": 936,
      "EchoNumbers": 1,
      "EchoTime": 37.0,
      "EchoTrainLength": 104,
      "FlipAngle": 68.0,
      "HighBit": 15,
      "ImageOrientationPatient": [0.99963389946681, -0.0188691054203, 0.01939133562749, 0.02355774109317, 0.95948655306514, -0.2807678530775],
      "ImagePositionPatient": [-963.37337831453, -908.44201127205, 204.82301902709],
      "ImageType": [
        "ORIGINAL",
        "PRIMARY",
        "M",
        "MB",
        "ND",
        "MOSAIC"
],
      "ImagedNucleus": "1H",
      "ImagingFrequency": 123.190861,
      "InPlanePhaseEncodingDirection": "COL",
      "MRAcquisitionType": "2D",
      "MagneticFieldStrength": 3.0,
      "Manufacturer": "SIEMENS",
      "ManufacturerModelName": "Prisma",
      "Modality": "MR",
      "NumberOfAverages": 1.0,
      "NumberOfPhaseEncodingSteps": 104,
      "PercentPhaseFieldOfView": 100.0,
      "PercentSampling": 100.0,
      "PerformedProcedureStepStartTime": "133436.477000",
      "PhotometricInterpretation": "MONOCHROME2",
      "PixelBandwidth": 2290.0,
      "PixelRepresentation": 0,
      "PixelSpacing": [2.0, 2.0],
      "ProtocolName": "task-sfprescaled_cmrr_mbepi_s6_2mm_66sl_PA_TR1.0",
      "RepetitionTime": 1000.0,
      "Rows": 936,
      "SAR": 0.05641051860443,
      "SamplesPerPixel": 1,
      "ScanOptions": "FS",
      "ScanningSequence": "EP",
      "SequenceName": "epfid2d1_104",
      "SequenceVariant": [
        "SK",
        "SS"
],
      "SeriesDescription": "task-sfprescaled_cmrr_mbepi_s6_2mm_66sl_PA_TR1.0",
      "SeriesNumber": 32,
      "SeriesTime": "144447.742000",
      "SliceLocation": -46.01843014342,
      "SliceThickness": 2.0,
      "SmallestImagePixelValue": 0,
      "SoftwareVersions": "syngo MR E11",
      "SpacingBetweenSlices": 2.0000000409259,
      "SpecificCharacterSet": "ISO_IR 100",
      "StudyID": "2",
      "StudyTime": "133436.380000",
      "TransmitCoilName": "Body",
      "VariableFlipAngleFlag": "N",
      "WindowCenterWidthExplanation": "Algo1",
      "dBdt": 0.0},
    "slices": {}
  },
  "time": {
    "samples": {
      "AcquisitionNumber": [1, 2, 3, 4, 5, 6, 7, 8, 9, 10, 11, 12, 13, 14, 15, 16, 17, 18, 19, 20, 21, 22, 23, 24, 25, 26, 27, 28, 29, 30, 31, 32, 33, 34, 35, 36, 37, 38, 39, 40, 41, 42, 43, 44, 45, 46, 47, 48, 49, 50, 51, 52, 53, 54, 55, 56, 57, 58, 59, 60, 61, 62, 63, 64, 65, 66, 67, 68, 69, 70, 71, 72, 73, 74, 75, 76, 77, 78, 79, 80, 81, 82, 83, 84, 85, 86, 87, 88, 89, 90, 91, 92, 93, 94, 95, 96, 97, 98, 99, 100, 101, 102, 103, 104, 105, 106, 107, 108, 109, 110, 111, 112, 113, 114, 115, 116, 117, 118, 119, 120, 121, 122, 123, 124, 125, 126, 127, 128, 129, 130, 131, 132, 133, 134, 135, 136, 137, 138, 139, 140, 141, 142, 143, 144, 145, 146, 147, 148, 149, 150, 151, 152, 153, 154, 155, 156, 157, 158, 159, 160, 161, 162, 163, 164, 165, 166, 167, 168, 169, 170, 171, 172, 173, 174, 175, 176, 177, 178, 179, 180, 181, 182, 183, 184, 185, 186, 187, 188, 189, 190, 191, 192, 193, 194, 195, 196, 197, 198, 199, 200, 201, 202, 203, 204, 205, 206, 207, 208, 209, 210, 211, 212, 213, 214, 215, 216, 217, 218, 219, 220, 221, 222, 223, 224, 225, 226, 227, 228, 229, 230, 231, 232, 233, 234, 235, 236, 237, 238, 239, 240, 241, 242, 243, 244, 245, 246, 247, 248, 249, 250, 251, 252, 253, 254, 255, 256, 257, 258, 259, 260, 261, 262, 263, 264],
      "AcquisitionTime": ["144352.580000", "144353.580000", "144354.580000", "144355.580000", "144356.580000", "144357.580000", "144358.580000", "144359.580000", "144400.580000", "144401.580000", "144402.580000", "144403.580000", "144404.580000", "144405.580000", "144406.580000", "144407.580000", "144408.580000", "144409.580000", "144410.580000", "144411.580000", "144412.580000", "144413.580000", "144414.580000", "144415.580000", "144416.580000", "144417.580000", "144418.580000", "144419.580000", "144420.580000", "144421.580000", "144422.580000", "144423.580000", "144424.580000", "144425.580000", "144426.580000", "144427.580000", "144428.580000", "144429.580000", "144430.580000", "144431.580000", "144432.580000", "144433.580000", "144434.580000", "144435.580000", "144436.580000", "144437.580000", "144438.580000", "144439.580000", "144440.580000", "144441.580000", "144442.580000", "144443.580000", "144444.580000", "144445.580000", "144446.580000", "144447.580000", "144448.580000", "144449.580000", "144450.580000", "144451.580000", "144452.580000", "144453.580000", "144454.580000", "144455.580000", "144456.580000", "144457.580000", "144458.580000", "144459.580000", "144500.580000", "144501.580000", "144502.580000", "144503.580000", "144504.580000", "144505.580000", "144506.580000", "144507.580000", "144508.580000", "144509.580000", "144510.580000", "144511.580000", "144512.580000", "144513.580000", "144514.580000", "144515.580000", "144516.580000", "144517.580000", "144518.580000", "144519.580000", "144520.580000", "144521.580000", "144522.580000", "144523.580000", "144524.580000", "144525.580000", "144526.580000", "144527.580000", "144528.580000", "144529.580000", "144530.580000", "144531.580000", "144532.580000", "144533.580000", "144534.580000", "144535.580000", "144536.580000", "144537.580000", "144538.580000", "144539.580000", "144540.580000", "144541.580000", "144542.580000", "144543.580000", "144544.580000", "144545.580000", "144546.580000", "144547.580000", "144548.580000", "144549.580000", "144550.580000", "144551.580000", "144552.580000", "144553.580000", "144554.580000", "144555.580000", "144556.580000", "144557.580000", "144558.580000", "144559.580000", "144600.580000", "144601.580000", "144602.580000", "144603.580000", "144604.580000", "144605.580000", "144606.580000", "144607.580000", "144608.580000", "144609.580000", "144610.580000", "144611.580000", "144612.580000", "144613.580000", "144614.580000", "144615.580000", "144616.580000", "144617.580000", "144618.580000", "144619.580000", "144620.580000", "144621.580000", "144622.580000", "144623.580000", "144624.580000", "144625.580000", "144626.580000", "144627.580000", "144628.580000", "144629.580000", "144630.580000", "144631.580000", "144632.580000", "144633.580000", "144634.580000", "144635.580000", "144636.580000", "144637.580000", "144638.580000", "144639.580000", "144640.580000", "144641.580000", "144642.580000", "144643.580000", "144644.580000", "144645.580000", "144646.580000", "144647.580000", "144648.580000", "144649.580000", "144650.580000", "144651.580000", "144652.580000", "144653.580000", "144654.580000", "144655.580000", "144656.580000", "144657.580000", "144658.580000", "144659.580000", "144700.580000", "144701.580000", "144702.580000", "144703.580000", "144704.580000", "144705.580000", "144706.580000", "144707.580000", "144708.580000", "144709.580000", "144710.580000", "144711.580000", "144712.580000", "144713.580000", "144714.580000", "144715.580000", "144716.580000", "144717.580000", "144718.580000", "144719.580000", "144720.580000", "144721.580000", "144722.580000", "144723.580000", "144724.580000", "144725.580000", "144726.580000", "144727.580000", "144728.580000", "144729.580000", "144730.580000", "144731.580000", "144732.580000", "144733.580000", "144734.580000", "144735.580000", "144736.580000", "144737.580000", "144738.580000", "144739.580000", "144740.580000", "144741.580000", "144742.580000", "144743.580000", "144744.580000", "144745.580000", "144746.580000", "144747.580000", "144748.580000", "144749.580000", "144750.580000", "144751.580000", "144752.580000", "144753.580000", "144754.580000", "144755.580000", "144756.580000", "144757.580000", "144758.580000", "144759.580000", "144800.580000", "144801.580000", "144802.580000", "144803.580000", "144804.580000", "144805.580000", "144806.580000", "144807.580000", "144808.580000", "144809.580000", "144810.580000", "144811.580000", "144812.580000", "144813.580000", "144814.580000", "144815.580000"],
      "ContentTime": ["144447.745000", "144452.711000", "144452.714000", "144452.717000", "144452.720000", "144452.723000", "144452.726000", "144452.729000", "144457.712000", "144457.715000", "144457.718000", "144457.721000", "144457.724000", "144457.727000", "144457.730000", "144502.712000", "144502.715000", "144502.718000", "144502.721000", "144502.724000", "144502.727000", "144502.730000", "144507.712000", "144507.715000", "144507.718000", "144507.721000", "144507.724000", "144507.727000", "144507.730000", "144512.711000", "144512.714000", "144512.717000", "144512.720000", "144512.723000", "144512.726000", "144512.729000", "144512.732000", "144517.712000", "144517.715000", "144517.718000", "144517.721000", "144517.724000", "144517.727000", "144517.730000", "144522.712000", "144522.715000", "144522.718000", "144522.721000", "144522.733000", "144522.736000", "144522.739000", "144527.711000", "144527.718000", "144527.721000", "144527.724000", "144527.727000", "144527.730000", "144527.733000", "144532.712000", "144532.715000", "144532.718000", "144532.721000", "144532.724000", "144532.727000", "144532.730000", "144537.712000", "144537.715000", "144537.718000", "144537.721000", "144537.724000", "144537.727000", "144537.730000", "144542.712000", "144542.715000", "144542.718000", "144542.721000", "144542.724000", "144542.727000", "144542.730000", "144547.711000", "144547.714000", "144547.717000", "144547.720000", "144547.723000", "144547.726000", "144547.729000", "144552.712000", "144552.715000", "144552.718000", "144552.721000", "144552.724000", "144552.727000", "144552.730000", "144557.712000", "144557.715000", "144557.718000", "144557.721000", "144557.724000", "144557.727000", "144557.730000", "144602.711000", "144602.714000", "144602.717000", "144602.720000", "144602.723000", "144602.726000", "144602.729000", "144602.732000", "144607.712000", "144607.715000", "144607.718000", "144607.721000", "144607.724000", "144607.727000", "144607.730000", "144612.712000", "144612.715000", "144612.718000", "144612.721000", "144612.724000", "144612.727000", "144612.730000", "144617.712000", "144617.715000", "144617.718000", "144617.721000", "144617.724000", "144617.727000", "144617.730000", "144622.711000", "144622.714000", "144622.717000", "144622.720000", "144622.723000", "144622.726000", "144622.729000", "144627.712000", "144627.715000", "144627.718000", "144627.721000", "144627.724000", "144627.727000", "144627.730000", "144632.712000", "144632.715000", "144632.718000", "144632.721000", "144632.724000", "144632.727000", "144632.730000", "144637.711000", "144637.714000", "144637.717000", "144637.720000", "144637.723000", "144637.726000", "144637.729000", "144642.712000", "144642.715000", "144642.718000", "144642.721000", "144642.724000", "144642.727000", "144642.730000", "144647.712000", "144647.715000", "144647.718000", "144647.721000", "144647.724000", "144647.727000", "144647.730000", "144652.712000", "144652.715000", "144652.718000", "144652.721000", "144652.724000", "144652.727000", "144652.730000", "144657.711000", "144657.714000", "144657.717000", "144657.720000", "144657.723000", "144657.726000", "144702.712000", "144702.715000", "144702.718000", "144702.721000", "144702.724000", "144707.712000", "144707.715000", "144707.718000", "144707.721000", "144707.724000", "144712.711000", "144712.714000", "144712.717000", "144712.721000", "144712.723000", "144717.712000", "144717.715000", "144717.718000", "144717.721000", "144717.724000", "144722.712000", "144722.715000", "144722.718000", "144722.721000", "144722.724000", "144727.712000", "144727.715000", "144727.718000", "144727.721000", "144727.724000", "144732.711000", "144732.714000", "144732.717000", "144732.720000", "144732.724000", "144737.712000", "144737.715000", "144737.718000", "144737.721000", "144737.724000", "144742.712000", "144742.715000", "144742.718000", "144742.721000", "144742.725000", "144747.711000", "144747.714000", "144747.717000", "144747.720000", "144747.723000", "144752.712000", "144752.715000", "144752.718000", "144752.721000", "144752.724000", "144757.712000", "144757.715000", "144757.718000", "144757.721000", "144757.724000", "144802.712000", "144802.715000", "144802.718000", "144802.732000", "144802.735000", "144807.711000", "144807.714000", "144807.717000", "144807.720000", "144807.723000", "144812.712000", "144812.715000", "144812.718000", "144812.721000", "144812.724000", "144817.091000", "144817.095000", "144817.099000", "144817.103000", "144817.106000"],
      "InstanceCreationTime": ["144447.745000", "144452.711000", "144452.714000", "144452.717000", "144452.720000", "144452.723000", "144452.726000", "144452.729000", "144457.712000", "144457.715000", "144457.718000", "144457.721000", "144457.724000", "144457.727000", "144457.730000", "144502.712000", "144502.715000", "144502.718000", "144502.721000", "144502.724000", "144502.727000", "144502.730000", "144507.712000", "144507.715000", "144507.718000", "144507.721000", "144507.724000", "144507.727000", "144507.730000", "144512.711000", "144512.714000", "144512.717000", "144512.720000", "144512.723000", "144512.726000", "144512.729000", "144512.732000", "144517.712000", "144517.715000", "144517.718000", "144517.721000", "144517.724000", "144517.727000", "144517.730000", "144522.712000", "144522.715000", "144522.718000", "144522.721000", "144522.733000", "144522.736000", "144522.739000", "144527.711000", "144527.718000", "144527.721000", "144527.724000", "144527.727000", "144527.730000", "144527.733000", "144532.712000", "144532.715000", "144532.718000", "144532.721000", "144532.724000", "144532.727000", "144532.730000", "144537.712000", "144537.715000", "144537.718000", "144537.721000", "144537.724000", "144537.727000", "144537.730000", "144542.712000", "144542.715000", "144542.718000", "144542.721000", "144542.724000", "144542.727000", "144542.730000", "144547.711000", "144547.714000", "144547.717000", "144547.720000", "144547.723000", "144547.726000", "144547.729000", "144552.712000", "144552.715000", "144552.718000", "144552.721000", "144552.724000", "144552.727000", "144552.730000", "144557.712000", "144557.715000", "144557.718000", "144557.721000", "144557.724000", "144557.727000", "144557.730000", "144602.711000", "144602.714000", "144602.717000", "144602.720000", "144602.723000", "144602.726000", "144602.729000", "144602.732000", "144607.712000", "144607.715000", "144607.718000", "144607.721000", "144607.724000", "144607.727000", "144607.730000", "144612.712000", "144612.715000", "144612.718000", "144612.721000", "144612.724000", "144612.727000", "144612.730000", "144617.712000", "144617.715000", "144617.718000", "144617.721000", "144617.724000", "144617.727000", "144617.730000", "144622.711000", "144622.714000", "144622.717000", "144622.720000", "144622.723000", "144622.726000", "144622.729000", "144627.712000", "144627.715000", "144627.718000", "144627.721000", "144627.724000", "144627.727000", "144627.730000", "144632.712000", "144632.715000", "144632.718000", "144632.721000", "144632.724000", "144632.727000", "144632.730000", "144637.711000", "144637.714000", "144637.717000", "144637.720000", "144637.723000", "144637.726000", "144637.729000", "144642.712000", "144642.715000", "144642.718000", "144642.721000", "144642.724000", "144642.727000", "144642.730000", "144647.712000", "144647.715000", "144647.718000", "144647.721000", "144647.724000", "144647.727000", "144647.730000", "144652.712000", "144652.715000", "144652.718000", "144652.721000", "144652.724000", "144652.727000", "144652.730000", "144657.711000", "144657.714000", "144657.717000", "144657.720000", "144657.723000", "144657.726000", "144702.712000", "144702.715000", "144702.718000", "144702.721000", "144702.724000", "144707.712000", "144707.715000", "144707.718000", "144707.721000", "144707.724000", "144712.711000", "144712.714000", "144712.717000", "144712.721000", "144712.723000", "144717.712000", "144717.715000", "144717.718000", "144717.721000", "144717.724000", "144722.712000", "144722.715000", "144722.718000", "144722.721000", "144722.724000", "144727.712000", "144727.715000", "144727.718000", "144727.721000", "144727.724000", "144732.711000", "144732.714000", "144732.717000", "144732.720000", "144732.724000", "144737.712000", "144737.715000", "144737.718000", "144737.721000", "144737.724000", "144742.712000", "144742.715000", "144742.718000", "144742.721000", "144742.725000", "144747.711000", "144747.714000", "144747.717000", "144747.720000", "144747.723000", "144752.712000", "144752.715000", "144752.718000", "144752.721000", "144752.724000", "144757.712000", "144757.715000", "144757.718000", "144757.721000", "144757.724000", "144802.712000", "144802.715000", "144802.718000", "144802.732000", "144802.735000", "144807.711000", "144807.714000", "144807.717000", "144807.720000", "144807.723000", "144812.712000", "144812.715000", "144812.718000", "144812.721000", "144812.724000", "144817.091000", "144817.095000", "144817.099000", "144817.103000", "144817.106000"],
      "InstanceNumber": [1, 2, 3, 4, 5, 6, 7, 8, 9, 10, 11, 12, 13, 14, 15, 16, 17, 18, 19, 20, 21, 22, 23, 24, 25, 26, 27, 28, 29, 30, 31, 32, 33, 34, 35, 36, 37, 38, 39, 40, 41, 42, 43, 44, 45, 46, 47, 48, 49, 50, 51, 52, 53, 54, 55, 56, 57, 58, 59, 60, 61, 62, 63, 64, 65, 66, 67, 68, 69, 70, 71, 72, 73, 74, 75, 76, 77, 78, 79, 80, 81, 82, 83, 84, 85, 86, 87, 88, 89, 90, 91, 92, 93, 94, 95, 96, 97, 98, 99, 100, 101, 102, 103, 104, 105, 106, 107, 108, 109, 110, 111, 112, 113, 114, 115, 116, 117, 118, 119, 120, 121, 122, 123, 124, 125, 126, 127, 128, 129, 130, 131, 132, 133, 134, 135, 136, 137, 138, 139, 140, 141, 142, 143, 144, 145, 146, 147, 148, 149, 150, 151, 152, 153, 154, 155, 156, 157, 158, 159, 160, 161, 162, 163, 164, 165, 166, 167, 168, 169, 170, 171, 172, 173, 174, 175, 176, 177, 178, 179, 180, 181, 182, 183, 184, 185, 186, 187, 188, 189, 190, 191, 192, 193, 194, 195, 196, 197, 198, 199, 200, 201, 202, 203, 204, 205, 206, 207, 208, 209, 210, 211, 212, 213, 214, 215, 216, 217, 218, 219, 220, 221, 222, 223, 224, 225, 226, 227, 228, 229, 230, 231, 232, 233, 234, 235, 236, 237, 238, 239, 240, 241, 242, 243, 244, 245, 246, 247, 248, 249, 250, 251, 252, 253, 254, 255, 256, 257, 258, 259, 260, 261, 262, 263, 264],
      "LargestImagePixelValue": [35924, 35216, 35205, 34432, 33627, 33834, 32821, 32376, 32869, 32232, 32729, 32509, 32411, 32658, 32727, 32714, 32722, 32896, 32701, 33135, 33000, 33475, 33125, 33175, 33187, 32984, 32785, 32893, 32317, 32883, 32934, 32787, 33039, 33473, 32833, 32738, 33253, 33992, 33110, 33418, 33765, 33788, 33262, 33133, 34227, 33337, 33729, 34549, 33390, 34015, 35566, 32751, 32802, 32862, 32033, 32109, 32152, 32180, 31934, 32557, 32185, 33098, 32787, 32379, 33204, 32674, 32770, 33227, 32539, 32819, 32614, 33036, 33014, 32608, 32468, 32908, 32453, 32559, 32966, 32426, 32555, 32907, 32796, 32480, 33408, 32643, 32645, 33246, 32766, 32741, 33151, 32975, 32558, 33099, 32591, 32143, 32024, 32104, 32232, 32853, 33327, 33379, 32929, 33242, 33577, 32714, 33011, 33905, 33457, 33360, 33826, 34137, 34601, 33897, 36430, 36038, 33820, 34478, 35014, 33850, 32553, 32334, 32594, 34635, 31958, 31916, 32022, 33282, 33399, 34212, 33125, 32935, 32033, 33532, 33678, 32676, 32286, 32396, 32488, 32917, 33142, 32996, 33079, 32684, 32429, 32537, 33495, 32561, 32527, 32257, 32457, 32485, 33155, 32768, 32254, 32571, 32422, 32335, 32975, 32624, 32265, 32779, 32256, 32970, 32080, 32008, 31991, 32404, 32861, 32473, 32796, 33071, 33208, 32968, 32670, 32608, 32836, 33889, 33102, 32431, 32389, 31845, 32250, 32710, 33738, 32610, 32564, 32518, 32436, 32614, 32725, 32396, 32806, 32434, 32063, 32588, 32503, 33660, 34989, 33106, 32524, 33061, 33286, 33042, 33391, 33727, 33138, 33502, 34070, 32914, 32167, 32646, 32455, 32546, 32830, 33217, 33036, 33129, 32800, 32876, 33081, 32943, 32663, 33751, 32553, 32434, 32570, 32752, 32587, 32398, 32412, 32544, 32529, 32866, 33701, 33074, 32641, 32435, 32764, 32861, 32787, 32933, 33003, 32896, 32723, 32318, 32422, 32671, 32329, 32402, 31730, 32465, 31759, 32360, 32746, 32530, 32734, 32505, 31983, 32058, 32148, 32539, 32472, 32633],
      "WindowCenter": [9620.0, 9590.0, 9580.0, 9555.0, 9536.0, 9535.0, 9511.0, 9504.0, 9525.0, 9523.0, 9522.0, 9526.0, 9516.0, 9514.0, 9505.0, 9503.0, 9502.0, 9518.0, 9529.0, 9553.0, 9549.0, 9551.0, 9543.0, 9536.0, 9536.0, 9529.0, 9540.0, 9555.0, 9558.0, 9564.0, 9565.0, 9552.0, 9556.0, 9561.0, 9551.0, 9558.0, 9571.0, 9584.0, 9574.0, 9580.0, 9578.0, 9577.0, 9578.0, 9581.0, 9592.0, 9587.0, 9602.0, 9581.0, 9572.0, 9604.0, 9620.0, 9567.0, 9571.0, 9564.0, 9543.0, 9535.0, 9535.0, 9528.0, 9529.0, 9550.0, 9537.0, 9554.0, 9558.0, 9553.0, 9539.0, 9524.0, 9531.0, 9539.0, 9526.0, 9522.0, 9516.0, 9531.0, 9532.0, 9533.0, 9544.0, 9558.0, 9545.0, 9535.0, 9525.0, 9509.0, 9510.0, 9516.0, 9518.0, 9534.0, 9548.0, 9543.0, 9551.0, 9556.0, 9530.0, 9526.0, 9531.0, 9516.0, 9502.0, 9507.0, 9494.0, 9492.0, 9494.0, 9502.0, 9517.0, 9541.0, 9564.0, 9575.0, 9571.0, 9569.0, 9551.0, 9536.0, 9527.0, 9530.0, 9537.0, 9563.0, 9619.0, 9584.0, 9554.0, 9584.0, 9594.0, 9526.0, 9568.0, 9507.0, 9516.0, 9496.0, 9423.0, 9418.0, 9494.0, 9529.0, 9494.0, 9470.0, 9467.0, 9486.0, 9495.0, 9507.0, 9495.0, 9498.0, 9489.0, 9512.0, 9511.0, 9506.0, 9501.0, 9494.0, 9505.0, 9508.0, 9513.0, 9515.0, 9523.0, 9518.0, 9519.0, 9528.0, 9540.0, 9526.0, 9531.0, 9527.0, 9528.0, 9526.0, 9531.0, 9521.0, 9511.0, 9516.0, 9513.0, 9513.0, 9523.0, 9516.0, 9505.0, 9508.0, 9502.0, 9514.0, 9502.0, 9517.0, 9519.0, 9520.0, 9547.0, 9554.0, 9548.0, 9537.0, 9533.0, 9518.0, 9503.0, 9492.0, 9524.0, 9543.0, 9518.0, 9496.0, 9492.0, 9489.0, 9487.0, 9491.0, 9486.0, 9479.0, 9482.0, 9490.0, 9484.0, 9483.0, 9485.0, 9487.0, 9533.0, 9528.0, 9512.0, 9545.0, 9528.0, 9494.0, 9530.0, 9472.0, 9481.0, 9481.0, 9488.0, 9489.0, 9489.0, 9489.0, 9454.0, 9474.0, 9466.0, 9455.0, 9448.0, 9456.0, 9450.0, 9449.0, 9454.0, 9470.0, 9482.0, 9497.0, 9501.0, 9503.0, 9496.0, 9493.0, 9488.0, 9508.0, 9487.0, 9494.0, 9502.0, 9503.0, 9502.0, 9505.0, 9510.0, 9503.0, 9495.0, 9483.0, 9506.0, 9493.0, 9486.0, 9493.0, 9503.0, 9519.0, 9512.0, 9508.0, 9485.0, 9468.0, 9451.0, 9452.0, 9453.0, 9458.0, 9453.0, 9460.0, 9455.0, 9468.0, 9471.0, 9499.0, 9503.0, 9501.0, 9508.0, 9500.0, 9480.0, 9479.0, 9479.0, 9485.0, 9477.0, 9483.0],
      "WindowWidth": [20565.0, 20492.0, 20464.0, 20403.0, 20364.0, 20360.0, 20306.0, 20293.0, 20339.0, 20338.0, 20333.0, 20340.0, 20322.0, 20315.0, 20297.0, 20289.0, 20289.0, 20322.0, 20356.0, 20411.0, 20406.0, 20405.0, 20386.0, 20369.0, 20366.0, 20354.0, 20382.0, 20415.0, 20427.0, 20438.0, 20441.0, 20416.0, 20424.0, 20432.0, 20412.0, 20428.0, 20458.0, 20483.0, 20465.0, 20477.0, 20470.0, 20464.0, 20469.0, 20477.0, 20497.0, 20489.0, 20522.0, 20472.0, 20457.0, 20538.0, 20553.0, 20444.0, 20447.0, 20428.0, 20386.0, 20374.0, 20373.0, 20357.0, 20364.0, 20407.0, 20383.0, 20412.0, 20425.0, 20417.0, 20380.0, 20348.0, 20364.0, 20378.0, 20352.0, 20336.0, 20329.0, 20359.0, 20359.0, 20364.0, 20395.0, 20419.0, 20389.0, 20365.0, 20339.0, 20307.0, 20315.0, 20325.0, 20333.0, 20370.0, 20396.0, 20392.0, 20410.0, 20417.0, 20362.0, 20348.0, 20354.0, 20323.0, 20297.0, 20302.0, 20276.0, 20269.0, 20272.0, 20290.0, 20325.0, 20378.0, 20432.0, 20458.0, 20455.0, 20446.0, 20403.0, 20372.0, 20350.0, 20352.0, 20369.0, 20438.0, 20564.0, 20478.0, 20413.0, 20478.0, 20493.0, 20325.0, 20439.0, 20280.0, 20320.0, 20273.0, 20108.0, 20095.0, 20268.0, 20341.0, 20276.0, 20222.0, 20218.0, 20257.0, 20279.0, 20300.0, 20279.0, 20290.0, 20279.0, 20313.0, 20311.0, 20305.0, 20295.0, 20281.0, 20302.0, 20310.0, 20318.0, 20328.0, 20345.0, 20337.0, 20343.0, 20364.0, 20382.0, 20349.0, 20359.0, 20354.0, 20354.0, 20350.0, 20362.0, 20342.0, 20317.0, 20330.0, 20330.0, 20326.0, 20344.0, 20330.0, 20308.0, 20310.0, 20302.0, 20321.0, 20299.0, 20328.0, 20333.0, 20338.0, 20400.0, 20426.0, 20411.0, 20383.0, 20369.0, 20333.0, 20298.0, 20271.0, 20345.0, 20382.0, 20334.0, 20284.0, 20272.0, 20275.0, 20267.0, 20269.0, 20250.0, 20238.0, 20250.0, 20266.0, 20258.0, 20256.0, 20260.0, 20267.0, 20373.0, 20361.0, 20327.0, 20402.0, 20365.0, 20271.0, 20360.0, 20228.0, 20248.0, 20246.0, 20266.0, 20270.0, 20269.0, 20264.0, 20188.0, 20232.0, 20211.0, 20190.0, 20178.0, 20194.0, 20184.0, 20181.0, 20189.0, 20224.0, 20257.0, 20290.0, 20307.0, 20314.0, 20298.0, 20290.0, 20283.0, 20320.0, 20271.0, 20288.0, 20305.0, 20304.0, 20302.0, 20314.0, 20323.0, 20307.0, 20287.0, 20257.0, 20310.0, 20279.0, 20263.0, 20279.0, 20305.0, 20341.0, 20327.0, 20314.0, 20261.0, 20221.0, 20187.0, 20190.0, 20194.0, 20200.0, 20194.0, 20206.0, 20196.0, 20219.0, 20232.0, 20291.0, 20302.0, 20295.0, 20313.0, 20292.0, 20253.0, 20252.0, 20253.0, 20259.0, 20245.0, 20256.0]
    },
    "slices": {}
  }
}