{
  "AcquisitionMatrixPE": 104,
  "AcquisitionNumber": 1,
  "AcquisitionTime": "14:23:57.537500",
  "BandwidthPerPixelPhaseEncode": 16.578,
  "BaseResolution": 104,
  "BodyPartExamined": "BRAIN",
  "ConsistencyInfo": "N4_VE11C_LATEST_20160120",
  "ConversionSoftware": "dcm2niix",
  "ConversionSoftwareVersion": "v1.0.20190410  GCC6.3.0",
  "DerivedVendorReportedEchoSpacing": 0.000580009,
  "DeviceSerialNumber": "166018",
  "DwellTime": 2.1e-06,
  "EchoTime": 0.037,
  "EchoTrainLength": 104,
  "EffectiveEchoSpacing": 0.000580009,
  "FlipAngle": 68,
  "ImageComments": "Unaliased_MB6_PE3_LB",
  "ImageOrientationPatientDICOM": [0.999634, -0.0188691, 0.0193913, 0.0235577, 0.959487, -0.280768],
  "ImageType": [
    "ORIGINAL",
    "PRIMARY",
    "M",
    "MB",
    "ND",
    "MOSAIC"
],
  "ImagingFrequency": 123.191,
  "InPlanePhaseEncodingDirectionDICOM": "COL",
  "InstitutionAddress": "Washington_Place_6_NYC_NYC_US_10003",
  "InstitutionName": "NYU_Center_for_Brain_Imaging",
  "InstitutionalDepartmentName": "Department",
  "MRAcquisitionType": "2D",
  "MagneticFieldStrength": 3,
  "Manufacturer": "Siemens",
  "ManufacturersModelName": "Prisma",
  "Modality": "MR",
  "MultibandAccelerationFactor": 6,
  "PartialFourier": 1,
  "PatientPosition": "HFS",
  "PercentPhaseFOV": 100,
  "PhaseEncodingDirection": "j",
  "PhaseEncodingSteps": 104,
  "PhaseResolution": 1,
  "PixelBandwidth": 2290,
  "ProcedureStepDescription": "Investigators_Winawer",
  "ProtocolName": "task-sfprescaled_cmrr_mbepi_s6_2mm_66sl_PA_TR1.0",
  "PulseSequenceDetails": "%CustomerSeq%_cmrr_mbep2d_bold",
  "ReceiveCoilActiveElements": "HC1-7",
  "ReceiveCoilName": "HeadNeck_64",
  "ReconMatrixPE": 104,
  "RepetitionTime": 1,
  "SAR": 0.0564105,
  "ScanOptions": "FS",
  "ScanningSequence": "EP",
  "SequenceName": "epfid2d1_104",
  "SequenceVariant": "SK_SS",
  "SeriesDescription": "task-sfprescaled_cmrr_mbepi_s6_2mm_66sl_PA_TR1.0",
  "SeriesNumber": 24,
  "ShimSetting": [232, -12605, -8478, 466, -34, 92, -173, 55],
  "SliceThickness": 2,
  "SliceTiming": [0, 0.535, 0.09, 0.6225, 0.1775, 0.7125, 0.2675, 0.8025, 0.3575, 0.89, 0.445, 0, 0.535, 0.09, 0.6225, 0.1775, 0.7125, 0.2675, 0.8025, 0.3575, 0.89, 0.445, 0, 0.535, 0.09, 0.6225, 0.1775, 0.7125, 0.2675, 0.8025, 0.3575, 0.89, 0.445, 0, 0.535, 0.09, 0.6225, 0.1775, 0.7125, 0.2675, 0.8025, 0.3575, 0.89, 0.445, 0, 0.535, 0.09, 0.6225, 0.1775, 0.7125, 0.2675, 0.8025, 0.3575, 0.89, 0.445, 0, 0.535, 0.09, 0.6225, 0.1775, 0.7125, 0.2675, 0.8025, 0.3575, 0.89, 0.445],
  "SoftwareVersions": "syngo_MR_E11",
  "SpacingBetweenSlices": 2,
  "StationName": "AWP166018",
  "TaskName": "sfprescaled",
  "TotalReadoutTime": 0.0597409,
  "TxRefAmp": 209.628,
  "WipMemBlock": "ce706ca7-c0e3-4c80-920e-365af659f99b||Sequence: R016 ve11c/master r/8780670; Nov 27 2017 15:05:12 by eja",
  "dcmmeta_affine": [
    [-1.999267816543579, 0.04711548238992691, 0.026615776121616364, 107.22503662109375],
    [0.03773821145296097, 1.9189730882644653, -0.5622437596321106, -71.80593872070312],
    [0.038782671093940735, 0.5615357160568237, 1.9191596508026123, -70.48042297363281],
    [0.0, 0.0, 0.0, 1.0]
],
  "dcmmeta_reorient_transform": [
    [0.0, -1.0, 0.0, 103.0],
    [1.0, 0.0, 0.0, 0.0],
    [0.0, 0.0, 1.0, 0.0],
    [0.0, 0.0, 0.0, 1.0]
],
  "dcmmeta_shape": [104, 104, 66, 264],
  "dcmmeta_slice_dim": 2,
  "dcmmeta_version": 0.6,
  "global": {
    "const": {
      "AccessionNumber": "juLLg1bg",
  "NumberOfVolumes": 264,
      "AcquisitionMatrix": [104, 0, 0, 104],
      "AngioFlag": "N",
      "BitsAllocated": 16,
      "BitsStored": 16,
      "BodyPartExamined": "BRAIN",
      "Columns": 936,
      "EchoNumbers": 1,
      "EchoTime": 37.0,
      "EchoTrainLength": 104,
      "FlipAngle": 68.0,
      "HighBit": 15,
      "ImageOrientationPatient": [0.99963389946681, -0.0188691054203, 0.01939133562749, 0.02355774109317, 0.95948655306514, -0.2807678530775],
      "ImagePositionPatient": [-963.37337831453, -908.44201127205, 204.82301902709],
      "ImageType": [
        "ORIGINAL",
        "PRIMARY",
        "M",
        "MB",
        "ND",
        "MOSAIC"
],
      "ImagedNucleus": "1H",
      "ImagingFrequency": 123.190861,
      "InPlanePhaseEncodingDirection": "COL",
      "MRAcquisitionType": "2D",
      "MagneticFieldStrength": 3.0,
      "Manufacturer": "SIEMENS",
      "ManufacturerModelName": "Prisma",
      "Modality": "MR",
      "NumberOfAverages": 1.0,
      "NumberOfPhaseEncodingSteps": 104,
      "PercentPhaseFieldOfView": 100.0,
      "PercentSampling": 100.0,
      "PerformedProcedureStepStartTime": "133436.477000",
      "PhotometricInterpretation": "MONOCHROME2",
      "PixelBandwidth": 2290.0,
      "PixelRepresentation": 0,
      "PixelSpacing": [2.0, 2.0],
      "ProtocolName": "task-sfprescaled_cmrr_mbepi_s6_2mm_66sl_PA_TR1.0",
      "RepetitionTime": 1000.0,
      "Rows": 936,
      "SAR": 0.05641051860443,
      "SamplesPerPixel": 1,
      "ScanOptions": "FS",
      "ScanningSequence": "EP",
      "SequenceName": "epfid2d1_104",
      "SequenceVariant": [
        "SK",
        "SS"
],
      "SeriesDescription": "task-sfprescaled_cmrr_mbepi_s6_2mm_66sl_PA_TR1.0",
      "SeriesNumber": 24,
      "SeriesTime": "142447.600000",
      "SliceLocation": -46.01843014342,
      "SliceThickness": 2.0,
      "SmallestImagePixelValue": 0,
      "SoftwareVersions": "syngo MR E11",
      "SpacingBetweenSlices": 2.0000000409259,
      "SpecificCharacterSet": "ISO_IR 100",
      "StudyID": "2",
      "StudyTime": "133436.380000",
      "TransmitCoilName": "Body",
      "VariableFlipAngleFlag": "N",
      "WindowCenterWidthExplanation": "Algo1",
      "dBdt": 0.0},
    "slices": {}
  },
  "time": {
    "samples": {
      "AcquisitionNumber": [1, 2, 3, 4, 5, 6, 7, 8, 9, 10, 11, 12, 13, 14, 15, 16, 17, 18, 19, 20, 21, 22, 23, 24, 25, 26, 27, 28, 29, 30, 31, 32, 33, 34, 35, 36, 37, 38, 39, 40, 41, 42, 43, 44, 45, 46, 47, 48, 49, 50, 51, 52, 53, 54, 55, 56, 57, 58, 59, 60, 61, 62, 63, 64, 65, 66, 67, 68, 69, 70, 71, 72, 73, 74, 75, 76, 77, 78, 79, 80, 81, 82, 83, 84, 85, 86, 87, 88, 89, 90, 91, 92, 93, 94, 95, 96, 97, 98, 99, 100, 101, 102, 103, 104, 105, 106, 107, 108, 109, 110, 111, 112, 113, 114, 115, 116, 117, 118, 119, 120, 121, 122, 123, 124, 125, 126, 127, 128, 129, 130, 131, 132, 133, 134, 135, 136, 137, 138, 139, 140, 141, 142, 143, 144, 145, 146, 147, 148, 149, 150, 151, 152, 153, 154, 155, 156, 157, 158, 159, 160, 161, 162, 163, 164, 165, 166, 167, 168, 169, 170, 171, 172, 173, 174, 175, 176, 177, 178, 179, 180, 181, 182, 183, 184, 185, 186, 187, 188, 189, 190, 191, 192, 193, 194, 195, 196, 197, 198, 199, 200, 201, 202, 203, 204, 205, 206, 207, 208, 209, 210, 211, 212, 213, 214, 215, 216, 217, 218, 219, 220, 221, 222, 223, 224, 225, 226, 227, 228, 229, 230, 231, 232, 233, 234, 235, 236, 237, 238, 239, 240, 241, 242, 243, 244, 245, 246, 247, 248, 249, 250, 251, 252, 253, 254, 255, 256, 257, 258, 259, 260, 261, 262, 263, 264],
      "AcquisitionTime": ["142357.537500", "142358.537500", "142359.537500", "142400.537500", "142401.537500", "142402.537500", "142403.537500", "142404.537500", "142405.537500", "142406.537500", "142407.537500", "142408.537500", "142409.537500", "142410.537500", "142411.537500", "142412.537500", "142413.537500", "142414.537500", "142415.537500", "142416.537500", "142417.537500", "142418.537500", "142419.537500", "142420.537500", "142421.537500", "142422.537500", "142423.537500", "142424.537500", "142425.537500", "142426.537500", "142427.537500", "142428.537500", "142429.537500", "142430.537500", "142431.537500", "142432.537500", "142433.537500", "142434.537500", "142435.537500", "142436.537500", "142437.537500", "142438.537500", "142439.537500", "142440.537500", "142441.537500", "142442.537500", "142443.537500", "142444.537500", "142445.537500", "142446.537500", "142447.537500", "142448.537500", "142449.537500", "142450.537500", "142451.537500", "142452.537500", "142453.537500", "142454.537500", "142455.537500", "142456.537500", "142457.537500", "142458.537500", "142459.537500", "142500.537500", "142501.537500", "142502.537500", "142503.537500", "142504.537500", "142505.537500", "142506.537500", "142507.537500", "142508.537500", "142509.537500", "142510.537500", "142511.537500", "142512.537500", "142513.537500", "142514.537500", "142515.537500", "142516.537500", "142517.537500", "142518.537500", "142519.537500", "142520.537500", "142521.537500", "142522.537500", "142523.537500", "142524.537500", "142525.537500", "142526.537500", "142527.537500", "142528.537500", "142529.537500", "142530.537500", "142531.537500", "142532.537500", "142533.537500", "142534.537500", "142535.537500", "142536.537500", "142537.537500", "142538.537500", "142539.537500", "142540.537500", "142541.537500", "142542.537500", "142543.537500", "142544.537500", "142545.537500", "142546.537500", "142547.537500", "142548.537500", "142549.537500", "142550.537500", "142551.537500", "142552.537500", "142553.537500", "142554.537500", "142555.537500", "142556.537500", "142557.537500", "142558.537500", "142559.537500", "142600.537500", "142601.537500", "142602.537500", "142603.537500", "142604.537500", "142605.537500", "142606.537500", "142607.537500", "142608.537500", "142609.537500", "142610.537500", "142611.537500", "142612.537500", "142613.537500", "142614.537500", "142615.537500", "142616.537500", "142617.537500", "142618.537500", "142619.537500", "142620.537500", "142621.537500", "142622.537500", "142623.537500", "142624.537500", "142625.537500", "142626.537500", "142627.537500", "142628.537500", "142629.537500", "142630.537500", "142631.537500", "142632.537500", "142633.537500", "142634.537500", "142635.537500", "142636.537500", "142637.537500", "142638.537500", "142639.537500", "142640.537500", "142641.537500", "142642.537500", "142643.537500", "142644.537500", "142645.537500", "142646.537500", "142647.537500", "142648.537500", "142649.537500", "142650.537500", "142651.537500", "142652.537500", "142653.537500", "142654.537500", "142655.537500", "142656.537500", "142657.537500", "142658.537500", "142659.537500", "142700.537500", "142701.537500", "142702.537500", "142703.537500", "142704.537500", "142705.537500", "142706.537500", "142707.537500", "142708.537500", "142709.537500", "142710.537500", "142711.537500", "142712.537500", "142713.537500", "142714.537500", "142715.537500", "142716.537500", "142717.537500", "142718.537500", "142719.537500", "142720.537500", "142721.537500", "142722.537500", "142723.537500", "142724.537500", "142725.537500", "142726.537500", "142727.537500", "142728.537500", "142729.537500", "142730.537500", "142731.537500", "142732.537500", "142733.537500", "142734.537500", "142735.537500", "142736.537500", "142737.537500", "142738.537500", "142739.537500", "142740.537500", "142741.537500", "142742.537500", "142743.537500", "142744.537500", "142745.537500", "142746.537500", "142747.537500", "142748.537500", "142749.537500", "142750.537500", "142751.537500", "142752.537500", "142753.537500", "142754.537500", "142755.537500", "142756.537500", "142757.537500", "142758.537500", "142759.537500", "142800.537500", "142801.537500", "142802.537500", "142803.537500", "142804.537500", "142805.537500", "142806.537500", "142807.537500", "142808.537500", "142809.537500", "142810.537500", "142811.537500", "142812.537500", "142813.537500", "142814.537500", "142815.537500", "142816.537500", "142817.537500", "142818.537500", "142819.537500", "142820.537500"],
      "ContentTime": ["142447.603000", "142447.607000", "142447.610000", "142452.572000", "142452.575000", "142452.578000", "142452.581000", "142452.584000", "142452.587000", "142452.590000", "142457.571000", "142457.574000", "142457.577000", "142457.580000", "142457.583000", "142457.586000", "142457.589000", "142502.571000", "142502.574000", "142502.577000", "142502.580000", "142502.583000", "142502.586000", "142502.589000", "142507.571000", "142507.574000", "142507.577000", "142507.580000", "142507.583000", "142507.586000", "142507.590000", "142512.572000", "142512.575000", "142512.578000", "142512.581000", "142512.584000", "142512.587000", "142512.590000", "142517.571000", "142517.574000", "142517.577000", "142517.580000", "142517.583000", "142517.586000", "142517.589000", "142522.571000", "142522.574000", "142522.577000", "142522.580000", "142522.583000", "142522.586000", "142522.589000", "142527.572000", "142527.575000", "142527.578000", "142527.581000", "142527.584000", "142527.587000", "142527.590000", "142532.571000", "142532.574000", "142532.577000", "142532.580000", "142532.583000", "142532.586000", "142532.589000", "142537.571000", "142537.574000", "142537.577000", "142537.580000", "142537.583000", "142537.586000", "142537.589000", "142537.592000", "142542.572000", "142542.575000", "142542.578000", "142542.581000", "142542.584000", "142542.587000", "142542.590000", "142547.572000", "142547.575000", "142547.578000", "142547.581000", "142547.584000", "142547.587000", "142547.590000", "142552.571000", "142552.574000", "142552.577000", "142552.580000", "142552.583000", "142552.586000", "142552.589000", "142557.571000", "142557.574000", "142557.577000", "142557.580000", "142557.583000", "142557.586000", "142557.589000", "142602.572000", "142602.575000", "142602.578000", "142602.581000", "142602.584000", "142602.587000", "142602.590000", "142607.571000", "142607.574000", "142607.577000", "142607.580000", "142607.583000", "142607.586000", "142607.589000", "142617.572000", "142617.575000", "142617.578000", "142617.581000", "142617.584000", "142617.587000", "142617.590000", "142617.593000", "142617.597000", "142617.600000", "142617.603000", "142617.606000", "142617.609000", "142617.612000", "142622.572000", "142622.575000", "142622.578000", "142622.581000", "142622.584000", "142622.599000", "142622.602000", "142627.571000", "142627.574000", "142627.577000", "142627.580000", "142627.583000", "142627.586000", "142627.589000", "142632.571000", "142632.574000", "142632.577000", "142632.580000", "142632.583000", "142632.586000", "142632.589000", "142637.572000", "142637.575000", "142637.579000", "142637.582000", "142637.585000", "142637.588000", "142637.591000", "142642.571000", "142642.574000", "142642.577000", "142642.580000", "142642.589000", "142642.592000", "142647.571000", "142647.574000", "142647.577000", "142647.580000", "142647.583000", "142652.572000", "142652.575000", "142652.578000", "142652.581000", "142652.584000", "142657.572000", "142657.575000", "142657.578000", "142657.581000", "142657.584000", "142702.571000", "142702.574000", "142702.577000", "142702.580000", "142702.583000", "142707.571000", "142707.574000", "142707.577000", "142707.580000", "142707.583000", "142712.572000", "142712.575000", "142712.578000", "142712.581000", "142712.584000", "142717.571000", "142717.574000", "142717.577000", "142717.580000", "142717.583000", "142722.571000", "142722.574000", "142722.577000", "142722.580000", "142722.583000", "142727.572000", "142727.575000", "142727.578000", "142727.581000", "142727.584000", "142732.572000", "142732.575000", "142732.578000", "142732.581000", "142732.584000", "142737.571000", "142737.574000", "142737.577000", "142737.580000", "142737.583000", "142742.571000", "142742.574000", "142742.577000", "142742.580000", "142742.583000", "142747.572000", "142747.575000", "142747.578000", "142747.581000", "142747.584000", "142752.571000", "142752.574000", "142752.577000", "142752.580000", "142752.583000", "142757.571000", "142757.582000", "142757.585000", "142757.588000", "142757.591000", "142802.572000", "142802.580000", "142802.583000", "142802.586000", "142802.589000", "142807.572000", "142807.575000", "142807.578000", "142807.581000", "142807.584000", "142812.571000", "142812.574000", "142812.577000", "142812.580000", "142812.583000", "142817.571000", "142817.574000", "142817.577000", "142817.580000", "142817.583000", "142821.948000", "142821.955000", "142821.959000", "142821.962000", "142821.967000"],
      "InstanceCreationTime": ["142447.603000", "142447.607000", "142447.610000", "142452.572000", "142452.575000", "142452.578000", "142452.581000", "142452.584000", "142452.587000", "142452.590000", "142457.571000", "142457.574000", "142457.577000", "142457.580000", "142457.583000", "142457.586000", "142457.589000", "142502.571000", "142502.574000", "142502.577000", "142502.580000", "142502.583000", "142502.586000", "142502.589000", "142507.571000", "142507.574000", "142507.577000", "142507.580000", "142507.583000", "142507.586000", "142507.590000", "142512.572000", "142512.575000", "142512.578000", "142512.581000", "142512.584000", "142512.587000", "142512.590000", "142517.571000", "142517.574000", "142517.577000", "142517.580000", "142517.583000", "142517.586000", "142517.589000", "142522.571000", "142522.574000", "142522.577000", "142522.580000", "142522.583000", "142522.586000", "142522.589000", "142527.572000", "142527.575000", "142527.578000", "142527.581000", "142527.584000", "142527.587000", "142527.590000", "142532.571000", "142532.574000", "142532.577000", "142532.580000", "142532.583000", "142532.586000", "142532.589000", "142537.571000", "142537.574000", "142537.577000", "142537.580000", "142537.583000", "142537.586000", "142537.589000", "142537.592000", "142542.572000", "142542.575000", "142542.578000", "142542.581000", "142542.584000", "142542.587000", "142542.590000", "142547.572000", "142547.575000", "142547.578000", "142547.581000", "142547.584000", "142547.587000", "142547.590000", "142552.571000", "142552.574000", "142552.577000", "142552.580000", "142552.583000", "142552.586000", "142552.589000", "142557.571000", "142557.574000", "142557.577000", "142557.580000", "142557.583000", "142557.586000", "142557.589000", "142602.572000", "142602.575000", "142602.578000", "142602.581000", "142602.584000", "142602.587000", "142602.590000", "142607.571000", "142607.574000", "142607.577000", "142607.580000", "142607.583000", "142607.586000", "142607.589000", "142617.572000", "142617.575000", "142617.578000", "142617.581000", "142617.584000", "142617.587000", "142617.590000", "142617.593000", "142617.597000", "142617.600000", "142617.603000", "142617.606000", "142617.609000", "142617.612000", "142622.572000", "142622.575000", "142622.578000", "142622.581000", "142622.584000", "142622.599000", "142622.602000", "142627.571000", "142627.574000", "142627.577000", "142627.580000", "142627.583000", "142627.586000", "142627.589000", "142632.571000", "142632.574000", "142632.577000", "142632.580000", "142632.583000", "142632.586000", "142632.589000", "142637.572000", "142637.575000", "142637.579000", "142637.582000", "142637.585000", "142637.588000", "142637.591000", "142642.571000", "142642.574000", "142642.577000", "142642.580000", "142642.589000", "142642.592000", "142647.571000", "142647.574000", "142647.577000", "142647.580000", "142647.583000", "142652.572000", "142652.575000", "142652.578000", "142652.581000", "142652.584000", "142657.572000", "142657.575000", "142657.578000", "142657.581000", "142657.584000", "142702.571000", "142702.574000", "142702.577000", "142702.580000", "142702.583000", "142707.571000", "142707.574000", "142707.577000", "142707.580000", "142707.583000", "142712.572000", "142712.575000", "142712.578000", "142712.581000", "142712.584000", "142717.571000", "142717.574000", "142717.577000", "142717.580000", "142717.583000", "142722.571000", "142722.574000", "142722.577000", "142722.580000", "142722.583000", "142727.572000", "142727.575000", "142727.578000", "142727.581000", "142727.584000", "142732.572000", "142732.575000", "142732.578000", "142732.581000", "142732.584000", "142737.571000", "142737.574000", "142737.577000", "142737.580000", "142737.583000", "142742.571000", "142742.574000", "142742.577000", "142742.580000", "142742.583000", "142747.572000", "142747.575000", "142747.578000", "142747.581000", "142747.584000", "142752.571000", "142752.574000", "142752.577000", "142752.580000", "142752.583000", "142757.571000", "142757.582000", "142757.585000", "142757.588000", "142757.591000", "142802.572000", "142802.580000", "142802.583000", "142802.586000", "142802.589000", "142807.572000", "142807.575000", "142807.578000", "142807.581000", "142807.584000", "142812.571000", "142812.574000", "142812.577000", "142812.580000", "142812.583000", "142817.571000", "142817.574000", "142817.577000", "142817.580000", "142817.583000", "142821.948000", "142821.955000", "142821.959000", "142821.962000", "142821.967000"],
      "InstanceNumber": [1, 2, 3, 4, 5, 6, 7, 8, 9, 10, 11, 12, 13, 14, 15, 16, 17, 18, 19, 20, 21, 22, 23, 24, 25, 26, 27, 28, 29, 30, 31, 32, 33, 34, 35, 36, 37, 38, 39, 40, 41, 42, 43, 44, 45, 46, 47, 48, 49, 50, 51, 52, 53, 54, 55, 56, 57, 58, 59, 60, 61, 62, 63, 64, 65, 66, 67, 68, 69, 70, 71, 72, 73, 74, 75, 76, 77, 78, 79, 80, 81, 82, 83, 84, 85, 86, 87, 88, 89, 90, 91, 92, 93, 94, 95, 96, 97, 98, 99, 100, 101, 102, 103, 104, 105, 106, 107, 108, 109, 110, 111, 112, 113, 114, 115, 116, 117, 118, 119, 120, 121, 122, 123, 124, 125, 126, 127, 128, 129, 130, 131, 132, 133, 134, 135, 136, 137, 138, 139, 140, 141, 142, 143, 144, 145, 146, 147, 148, 149, 150, 151, 152, 153, 154, 155, 156, 157, 158, 159, 160, 161, 162, 163, 164, 165, 166, 167, 168, 169, 170, 171, 172, 173, 174, 175, 176, 177, 178, 179, 180, 181, 182, 183, 184, 185, 186, 187, 188, 189, 190, 191, 192, 193, 194, 195, 196, 197, 198, 199, 200, 201, 202, 203, 204, 205, 206, 207, 208, 209, 210, 211, 212, 213, 214, 215, 216, 217, 218, 219, 220, 221, 222, 223, 224, 225, 226, 227, 228, 229, 230, 231, 232, 233, 234, 235, 236, 237, 238, 239, 240, 241, 242, 243, 244, 245, 246, 247, 248, 249, 250, 251, 252, 253, 254, 255, 256, 257, 258, 259, 260, 261, 262, 263, 264],
      "LargestImagePixelValue": [32560, 31861, 31217, 31376, 30649, 31046, 31572, 30883, 30552, 31674, 30446, 30973, 31344, 31241, 30852, 31844, 31395, 31101, 32052, 31073, 31147, 32114, 31971, 31089, 31096, 31429, 31618, 31362, 31209, 31342, 31240, 30364, 30343, 30525, 30551, 30825, 31399, 30950, 31328, 31184, 31667, 31403, 30961, 31095, 31063, 30801, 31107, 31755, 30999, 31013, 31658, 31843, 31244, 31946, 31724, 31182, 31421, 31475, 31289, 32055, 30759, 31999, 31742, 31505, 31614, 31325, 30714, 31745, 31714, 31180, 31162, 31365, 31893, 32755, 32004, 32431, 32385, 31643, 31147, 32424, 31888, 32100, 31528, 31613, 31233, 30777, 31440, 31643, 31093, 31084, 31268, 31529, 31298, 30956, 31469, 31519, 30664, 30801, 31346, 31532, 31146, 31415, 31338, 31132, 31559, 30768, 31537, 30979, 31468, 31925, 31070, 31978, 32053, 30940, 32561, 32406, 33594, 31691, 31109, 31394, 31159, 31090, 30791, 31058, 30815, 30352, 30975, 31279, 30940, 30912, 31038, 30918, 30614, 30921, 31096, 30860, 31498, 31114, 31489, 32205, 31081, 31789, 31023, 31642, 31951, 31258, 31347, 32044, 31805, 31036, 31798, 31755, 31206, 31426, 32148, 31591, 31284, 31857, 31505, 31379, 31955, 31822, 31604, 31640, 31798, 31489, 30950, 31503, 30988, 31105, 31574, 31468, 31387, 31228, 31604, 32156, 31026, 33495, 34373, 32193, 31302, 30701, 31567, 31854, 31892, 32211, 31834, 31059, 30750, 30736, 30928, 31225, 31000, 31380, 31168, 31014, 31781, 31336, 31186, 32057, 31086, 30830, 31071, 31104, 31170, 31159, 31500, 32226, 32080, 31673, 31743, 31430, 31238, 30912, 30756, 31433, 33141, 31236, 31353, 31330, 31845, 31970, 31954, 31745, 32084, 31987, 31806, 32365, 32838, 32462, 32686, 32527, 32257, 31965, 31739, 31758, 32352, 32227, 32736, 31930, 31925, 31933, 31708, 31070, 30314, 31141, 31165, 30599, 32477, 31687, 31302, 30416, 30801, 30934, 30690, 31270, 31371, 30758, 30467, 30915, 30989, 30831, 31371, 31260],
      "WindowCenter": [9643.0, 9597.0, 9583.0, 9582.0, 9560.0, 9557.0, 9562.0, 9545.0, 9535.0, 9557.0, 9534.0, 9547.0, 9560.0, 9561.0, 9551.0, 9565.0, 9554.0, 9541.0, 9566.0, 9556.0, 9565.0, 9585.0, 9584.0, 9566.0, 9567.0, 9565.0, 9562.0, 9554.0, 9571.0, 9578.0, 9559.0, 9531.0, 9555.0, 9556.0, 9539.0, 9545.0, 9556.0, 9566.0, 9575.0, 9570.0, 9573.0, 9553.0, 9552.0, 9544.0, 9550.0, 9552.0, 9560.0, 9571.0, 9562.0, 9562.0, 9582.0, 9597.0, 9593.0, 9598.0, 9593.0, 9582.0, 9585.0, 9584.0, 9587.0, 9604.0, 9588.0, 9621.0, 9632.0, 9613.0, 9615.0, 9602.0, 9582.0, 9589.0, 9589.0, 9586.0, 9589.0, 9610.0, 9661.0, 9689.0, 9637.0, 9625.0, 9621.0, 9594.0, 9573.0, 9580.0, 9579.0, 9579.0, 9573.0, 9578.0, 9566.0, 9560.0, 9565.0, 9578.0, 9568.0, 9561.0, 9567.0, 9580.0, 9584.0, 9579.0, 9584.0, 9584.0, 9579.0, 9572.0, 9584.0, 9597.0, 9585.0, 9584.0, 9598.0, 9593.0, 9590.0, 9586.0, 9598.0, 9587.0, 9592.0, 9604.0, 9594.0, 9605.0, 9620.0, 9585.0, 9569.0, 9577.0, 9534.0, 9594.0, 9555.0, 9559.0, 9563.0, 9560.0, 9559.0, 9562.0, 9556.0, 9523.0, 9531.0, 9551.0, 9539.0, 9537.0, 9529.0, 9537.0, 9533.0, 9547.0, 9563.0, 9565.0, 9570.0, 9558.0, 9520.0, 9553.0, 9534.0, 9537.0, 9538.0, 9550.0, 9557.0, 9552.0, 9546.0, 9557.0, 9552.0, 9540.0, 9543.0, 9549.0, 9537.0, 9543.0, 9562.0, 9566.0, 9567.0, 9572.0, 9575.0, 9578.0, 9583.0, 9586.0, 9592.0, 9587.0, 9585.0, 9579.0, 9566.0, 9563.0, 9564.0, 9572.0, 9577.0, 9585.0, 9579.0, 9564.0, 9552.0, 9515.0, 9471.0, 9498.0, 9501.0, 9481.0, 9577.0, 9571.0, 9582.0, 9587.0, 9595.0, 9609.0, 9599.0, 9586.0, 9582.0, 9575.0, 9571.0, 9574.0, 9562.0, 9567.0, 9561.0, 9562.0, 9574.0, 9573.0, 9569.0, 9588.0, 9577.0, 9573.0, 9588.0, 9587.0, 9587.0, 9586.0, 9582.0, 9571.0, 9618.0, 9611.0, 9601.0, 9594.0, 9587.0, 9573.0, 9520.0, 9523.0, 9567.0, 9545.0, 9544.0, 9545.0, 9567.0, 9563.0, 9565.0, 9559.0, 9574.0, 9590.0, 9579.0, 9592.0, 9603.0, 9592.0, 9589.0, 9587.0, 9576.0, 9574.0, 9576.0, 9576.0, 9588.0, 9597.0, 9615.0, 9615.0, 9609.0, 9619.0, 9603.0, 9582.0, 9550.0, 9576.0, 9571.0, 9565.0, 9594.0, 9585.0, 9568.0, 9541.0, 9547.0, 9546.0, 9547.0, 9560.0, 9547.0, 9538.0, 9539.0, 9538.0, 9531.0, 9531.0, 9542.0, 9538.0],
      "WindowWidth": [20616.0, 20500.0, 20470.0, 20462.0, 20413.0, 20403.0, 20408.0, 20371.0, 20358.0, 20393.0, 20352.0, 20379.0, 20405.0, 20406.0, 20395.0, 20414.0, 20392.0, 20368.0, 20417.0, 20405.0, 20430.0, 20469.0, 20464.0, 20433.0, 20437.0, 20427.0, 20416.0, 20404.0, 20441.0, 20458.0, 20410.0, 20354.0, 20405.0, 20408.0, 20369.0, 20384.0, 20404.0, 20432.0, 20453.0, 20442.0, 20444.0, 20401.0, 20398.0, 20379.0, 20392.0, 20397.0, 20415.0, 20440.0, 20426.0, 20427.0, 20466.0, 20502.0, 20495.0, 20502.0, 20493.0, 20472.0, 20476.0, 20474.0, 20482.0, 20515.0, 20490.0, 20557.0, 20580.0, 20541.0, 20538.0, 20510.0, 20467.0, 20475.0, 20480.0, 20478.0, 20489.0, 20534.0, 20652.0, 20715.0, 20599.0, 20564.0, 20551.0, 20494.0, 20447.0, 20455.0, 20457.0, 20454.0, 20442.0, 20452.0, 20429.0, 20417.0, 20423.0, 20451.0, 20434.0, 20420.0, 20431.0, 20459.0, 20474.0, 20462.0, 20470.0, 20471.0, 20459.0, 20442.0, 20466.0, 20494.0, 20474.0, 20470.0, 20501.0, 20494.0, 20485.0, 20482.0, 20505.0, 20484.0, 20492.0, 20515.0, 20497.0, 20517.0, 20554.0, 20476.0, 20437.0, 20453.0, 20353.0, 20492.0, 20405.0, 20414.0, 20429.0, 20425.0, 20423.0, 20428.0, 20416.0, 20337.0, 20350.0, 20394.0, 20372.0, 20365.0, 20350.0, 20368.0, 20366.0, 20393.0, 20430.0, 20435.0, 20439.0, 20409.0, 20320.0, 20398.0, 20358.0, 20362.0, 20372.0, 20395.0, 20411.0, 20403.0, 20392.0, 20414.0, 20404.0, 20380.0, 20384.0, 20391.0, 20370.0, 20381.0, 20419.0, 20431.0, 20433.0, 20441.0, 20456.0, 20462.0, 20470.0, 20481.0, 20493.0, 20482.0, 20476.0, 20466.0, 20441.0, 20432.0, 20434.0, 20451.0, 20457.0, 20476.0, 20464.0, 20429.0, 20401.0, 20322.0, 20229.0, 20276.0, 20277.0, 20270.0, 20456.0, 20449.0, 20471.0, 20476.0, 20495.0, 20526.0, 20507.0, 20485.0, 20478.0, 20460.0, 20448.0, 20453.0, 20429.0, 20436.0, 20428.0, 20431.0, 20450.0, 20449.0, 20445.0, 20477.0, 20461.0, 20456.0, 20485.0, 20485.0, 20486.0, 20484.0, 20475.0, 20452.0, 20555.0, 20538.0, 20514.0, 20496.0, 20479.0, 20449.0, 20336.0, 20327.0, 20436.0, 20389.0, 20383.0, 20386.0, 20432.0, 20423.0, 20428.0, 20422.0, 20455.0, 20486.0, 20466.0, 20494.0, 20515.0, 20492.0, 20487.0, 20481.0, 20461.0, 20456.0, 20461.0, 20459.0, 20481.0, 20506.0, 20555.0, 20562.0, 20540.0, 20564.0, 20522.0, 20476.0, 20410.0, 20461.0, 20445.0, 20437.0, 20491.0, 20476.0, 20435.0, 20382.0, 20393.0, 20388.0, 20393.0, 20420.0, 20393.0, 20373.0, 20375.0, 20371.0, 20357.0, 20360.0, 20381.0, 20371.0]
    },
    "slices": {}
  }
}