{
  "AcquisitionMatrixPE": 104,
  "AcquisitionNumber": 1,
  "AcquisitionTime": "13:58:53.465000",
  "BandwidthPerPixelPhaseEncode": 16.578,
  "BaseResolution": 104,
  "BodyPartExamined": "BRAIN",
  "ConsistencyInfo": "N4_VE11C_LATEST_20160120",
  "ConversionSoftware": "dcm2niix",
  "ConversionSoftwareVersion": "v1.0.20190410  GCC6.3.0",
  "DerivedVendorReportedEchoSpacing": 0.000580009,
  "DeviceSerialNumber": "166018",
  "DwellTime": 2.1e-06,
  "EchoTime": 0.037,
  "EchoTrainLength": 104,
  "EffectiveEchoSpacing": 0.000580009,
  "FlipAngle": 68,
  "ImageComments": "Unaliased_MB6_PE3_LB",
  "ImageOrientationPatientDICOM": [0.999634, -0.0188691, 0.0193913, 0.0235577, 0.959487, -0.280768],
  "ImageType": [
    "ORIGINAL",
    "PRIMARY",
    "M",
    "MB",
    "ND",
    "MOSAIC"
],
  "ImagingFrequency": 123.191,
  "InPlanePhaseEncodingDirectionDICOM": "COL",
  "InstitutionAddress": "Washington_Place_6_NYC_NYC_US_10003",
  "InstitutionName": "NYU_Center_for_Brain_Imaging",
  "InstitutionalDepartmentName": "Department",
  "MRAcquisitionType": "2D",
  "MagneticFieldStrength": 3,
  "Manufacturer": "Siemens",
  "ManufacturersModelName": "Prisma",
  "Modality": "MR",
  "MultibandAccelerationFactor": 6,
  "PartialFourier": 1,
  "PatientPosition": "HFS",
  "PercentPhaseFOV": 100,
  "PhaseEncodingDirection": "j",
  "PhaseEncodingSteps": 104,
  "PhaseResolution": 1,
  "PixelBandwidth": 2290,
  "ProcedureStepDescription": "Investigators_Winawer",
  "ProtocolName": "task-sfprescaled_cmrr_mbepi_s6_2mm_66sl_PA_TR1.0",
  "PulseSequenceDetails": "%CustomerSeq%_cmrr_mbep2d_bold",
  "ReceiveCoilActiveElements": "HC1-7",
  "ReceiveCoilName": "HeadNeck_64",
  "ReconMatrixPE": 104,
  "RepetitionTime": 1,
  "SAR": 0.0564105,
  "ScanOptions": "FS",
  "ScanningSequence": "EP",
  "SequenceName": "epfid2d1_104",
  "SequenceVariant": "SK_SS",
  "SeriesDescription": "task-sfprescaled_cmrr_mbepi_s6_2mm_66sl_PA_TR1.0",
  "SeriesNumber": 14,
  "ShimSetting": [232, -12605, -8478, 466, -34, 92, -173, 55],
  "SliceThickness": 2,
  "SliceTiming": [0, 0.535, 0.0875, 0.6225, 0.1775, 0.7125, 0.2675, 0.8, 0.355, 0.89, 0.445, 0, 0.535, 0.0875, 0.6225, 0.1775, 0.7125, 0.2675, 0.8, 0.355, 0.89, 0.445, 0, 0.535, 0.0875, 0.6225, 0.1775, 0.7125, 0.2675, 0.8, 0.355, 0.89, 0.445, 0, 0.535, 0.0875, 0.6225, 0.1775, 0.7125, 0.2675, 0.8, 0.355, 0.89, 0.445, 0, 0.535, 0.0875, 0.6225, 0.1775, 0.7125, 0.2675, 0.8, 0.355, 0.89, 0.445, 0, 0.535, 0.0875, 0.6225, 0.1775, 0.7125, 0.2675, 0.8, 0.355, 0.89, 0.445],
  "SoftwareVersions": "syngo_MR_E11",
  "SpacingBetweenSlices": 2,
  "StationName": "AWP166018",
  "TaskName": "sfprescaled",
  "TotalReadoutTime": 0.0597409,
  "TxRefAmp": 209.628,
  "WipMemBlock": "ce706ca7-c0e3-4c80-920e-365af659f99b||Sequence: R016 ve11c/master r/8780670; Nov 27 2017 15:05:12 by eja",
  "dcmmeta_affine": [
    [-1.999267816543579, 0.04711548238992691, 0.026615776121616364, 107.22503662109375],
    [0.03773821145296097, 1.9189730882644653, -0.5622437596321106, -71.80593872070312],
    [0.038782671093940735, 0.5615357160568237, 1.9191596508026123, -70.48042297363281],
    [0.0, 0.0, 0.0, 1.0]
],
  "dcmmeta_reorient_transform": [
    [0.0, -1.0, 0.0, 103.0],
    [1.0, 0.0, 0.0, 0.0],
    [0.0, 0.0, 1.0, 0.0],
    [0.0, 0.0, 0.0, 1.0]
],
  "dcmmeta_shape": [104, 104, 66, 264],
  "dcmmeta_slice_dim": 2,
  "dcmmeta_version": 0.6,
  "global": {
    "const": {
      "AccessionNumber": "juLLg1bg",
  "NumberOfVolumes": 264,
      "AcquisitionMatrix": [104, 0, 0, 104],
      "AngioFlag": "N",
      "BitsAllocated": 16,
      "BitsStored": 16,
      "BodyPartExamined": "BRAIN",
      "Columns": 936,
      "EchoNumbers": 1,
      "EchoTime": 37.0,
      "EchoTrainLength": 104,
      "FlipAngle": 68.0,
      "HighBit": 15,
      "ImageOrientationPatient": [0.99963389946681, -0.0188691054203, 0.01939133562749, 0.02355774109317, 0.95948655306514, -0.2807678530775],
      "ImagePositionPatient": [-963.37337831453, -908.44201127205, 204.82301902709],
      "ImageType": [
        "ORIGINAL",
        "PRIMARY",
        "M",
        "MB",
        "ND",
        "MOSAIC"
],
      "ImagedNucleus": "1H",
      "ImagingFrequency": 123.190861,
      "InPlanePhaseEncodingDirection": "COL",
      "MRAcquisitionType": "2D",
      "MagneticFieldStrength": 3.0,
      "Manufacturer": "SIEMENS",
      "ManufacturerModelName": "Prisma",
      "Modality": "MR",
      "NumberOfAverages": 1.0,
      "NumberOfPhaseEncodingSteps": 104,
      "PercentPhaseFieldOfView": 100.0,
      "PercentSampling": 100.0,
      "PerformedProcedureStepStartTime": "133436.477000",
      "PhotometricInterpretation": "MONOCHROME2",
      "PixelBandwidth": 2290.0,
      "PixelRepresentation": 0,
      "PixelSpacing": [2.0, 2.0],
      "ProtocolName": "task-sfprescaled_cmrr_mbepi_s6_2mm_66sl_PA_TR1.0",
      "RepetitionTime": 1000.0,
      "Rows": 936,
      "SAR": 0.05641051860443,
      "SamplesPerPixel": 1,
      "ScanOptions": "FS",
      "ScanningSequence": "EP",
      "SequenceName": "epfid2d1_104",
      "SequenceVariant": [
        "SK",
        "SS"
],
      "SeriesDescription": "task-sfprescaled_cmrr_mbepi_s6_2mm_66sl_PA_TR1.0",
      "SeriesNumber": 14,
      "SeriesTime": "135949.102000",
      "SliceLocation": -46.01843014342,
      "SliceThickness": 2.0,
      "SmallestImagePixelValue": 0,
      "SoftwareVersions": "syngo MR E11",
      "SpacingBetweenSlices": 2.0000000409259,
      "SpecificCharacterSet": "ISO_IR 100",
      "StudyID": "2",
      "StudyTime": "133436.380000",
      "TransmitCoilName": "Body",
      "VariableFlipAngleFlag": "N",
      "WindowCenterWidthExplanation": "Algo1",
      "dBdt": 0.0},
    "slices": {}
  },
  "time": {
    "samples": {
      "AcquisitionNumber": [1, 2, 3, 4, 5, 6, 7, 8, 9, 10, 11, 12, 13, 14, 15, 16, 17, 18, 19, 20, 21, 22, 23, 24, 25, 26, 27, 28, 29, 30, 31, 32, 33, 34, 35, 36, 37, 38, 39, 40, 41, 42, 43, 44, 45, 46, 47, 48, 49, 50, 51, 52, 53, 54, 55, 56, 57, 58, 59, 60, 61, 62, 63, 64, 65, 66, 67, 68, 69, 70, 71, 72, 73, 74, 75, 76, 77, 78, 79, 80, 81, 82, 83, 84, 85, 86, 87, 88, 89, 90, 91, 92, 93, 94, 95, 96, 97, 98, 99, 100, 101, 102, 103, 104, 105, 106, 107, 108, 109, 110, 111, 112, 113, 114, 115, 116, 117, 118, 119, 120, 121, 122, 123, 124, 125, 126, 127, 128, 129, 130, 131, 132, 133, 134, 135, 136, 137, 138, 139, 140, 141, 142, 143, 144, 145, 146, 147, 148, 149, 150, 151, 152, 153, 154, 155, 156, 157, 158, 159, 160, 161, 162, 163, 164, 165, 166, 167, 168, 169, 170, 171, 172, 173, 174, 175, 176, 177, 178, 179, 180, 181, 182, 183, 184, 185, 186, 187, 188, 189, 190, 191, 192, 193, 194, 195, 196, 197, 198, 199, 200, 201, 202, 203, 204, 205, 206, 207, 208, 209, 210, 211, 212, 213, 214, 215, 216, 217, 218, 219, 220, 221, 222, 223, 224, 225, 226, 227, 228, 229, 230, 231, 232, 233, 234, 235, 236, 237, 238, 239, 240, 241, 242, 243, 244, 245, 246, 247, 248, 249, 250, 251, 252, 253, 254, 255, 256, 257, 258, 259, 260, 261, 262, 263, 264],
      "AcquisitionTime": ["135853.465000", "135854.465000", "135855.465000", "135856.465000", "135857.465000", "135858.465000", "135859.465000", "135900.465000", "135901.465000", "135902.465000", "135903.465000", "135904.465000", "135905.465000", "135906.465000", "135907.465000", "135908.465000", "135909.465000", "135910.465000", "135911.465000", "135912.465000", "135913.465000", "135914.465000", "135915.465000", "135916.465000", "135917.465000", "135918.465000", "135919.465000", "135920.465000", "135921.465000", "135922.465000", "135923.465000", "135924.465000", "135925.465000", "135926.465000", "135927.465000", "135928.465000", "135929.465000", "135930.465000", "135931.465000", "135932.465000", "135933.465000", "135934.465000", "135935.465000", "135936.465000", "135937.465000", "135938.465000", "135939.465000", "135940.465000", "135941.465000", "135942.465000", "135943.465000", "135944.465000", "135945.465000", "135946.465000", "135947.465000", "135948.465000", "135949.465000", "135950.465000", "135951.465000", "135952.465000", "135953.465000", "135954.465000", "135955.465000", "135956.465000", "135957.465000", "135958.465000", "135959.465000", "140000.465000", "140001.465000", "140002.465000", "140003.465000", "140004.465000", "140005.465000", "140006.465000", "140007.465000", "140008.465000", "140009.465000", "140010.465000", "140011.465000", "140012.465000", "140013.465000", "140014.465000", "140015.465000", "140016.465000", "140017.465000", "140018.465000", "140019.465000", "140020.465000", "140021.465000", "140022.465000", "140023.465000", "140024.465000", "140025.465000", "140026.465000", "140027.465000", "140028.465000", "140029.465000", "140030.465000", "140031.465000", "140032.465000", "140033.465000", "140034.465000", "140035.465000", "140036.465000", "140037.465000", "140038.465000", "140039.465000", "140040.465000", "140041.465000", "140042.465000", "140043.465000", "140044.465000", "140045.465000", "140046.465000", "140047.465000", "140048.465000", "140049.465000", "140050.465000", "140051.465000", "140052.465000", "140053.465000", "140054.465000", "140055.465000", "140056.465000", "140057.465000", "140058.465000", "140059.465000", "140100.465000", "140101.465000", "140102.465000", "140103.465000", "140104.465000", "140105.465000", "140106.465000", "140107.465000", "140108.465000", "140109.465000", "140110.465000", "140111.465000", "140112.465000", "140113.465000", "140114.465000", "140115.465000", "140116.465000", "140117.465000", "140118.465000", "140119.465000", "140120.465000", "140121.465000", "140122.465000", "140123.465000", "140124.465000", "140125.465000", "140126.465000", "140127.465000", "140128.465000", "140129.465000", "140130.465000", "140131.465000", "140132.465000", "140133.465000", "140134.465000", "140135.465000", "140136.465000", "140137.465000", "140138.465000", "140139.465000", "140140.465000", "140141.465000", "140142.465000", "140143.465000", "140144.465000", "140145.465000", "140146.465000", "140147.465000", "140148.465000", "140149.465000", "140150.465000", "140151.465000", "140152.465000", "140153.465000", "140154.465000", "140155.465000", "140156.465000", "140157.465000", "140158.465000", "140159.465000", "140200.465000", "140201.465000", "140202.465000", "140203.465000", "140204.465000", "140205.465000", "140206.465000", "140207.465000", "140208.465000", "140209.465000", "140210.465000", "140211.465000", "140212.465000", "140213.465000", "140214.465000", "140215.465000", "140216.465000", "140217.465000", "140218.465000", "140219.465000", "140220.465000", "140221.465000", "140222.465000", "140223.465000", "140224.465000", "140225.465000", "140226.465000", "140227.465000", "140228.465000", "140229.465000", "140230.465000", "140231.465000", "140232.465000", "140233.465000", "140234.465000", "140235.465000", "140236.465000", "140237.465000", "140238.465000", "140239.465000", "140240.465000", "140241.465000", "140242.465000", "140243.465000", "140244.465000", "140245.465000", "140246.465000", "140247.465000", "140248.465000", "140249.465000", "140250.465000", "140251.465000", "140252.465000", "140253.465000", "140254.465000", "140255.465000", "140256.465000", "140257.465000", "140258.465000", "140259.465000", "140300.465000", "140301.465000", "140302.465000", "140303.465000", "140304.465000", "140305.465000", "140306.465000", "140307.465000", "140308.465000", "140309.465000", "140310.465000", "140311.465000", "140312.465000", "140313.465000", "140314.465000", "140315.465000", "140316.465000"],
      "ContentTime": ["135949.105000", "135954.068000", "135954.071000", "135954.074000", "135954.077000", "135954.080000", "135954.083000", "135954.086000", "135959.068000", "135959.071000", "135959.074000", "135959.077000", "135959.080000", "135959.083000", "135959.086000", "140004.069000", "140004.072000", "140004.075000", "140004.078000", "140004.081000", "140004.084000", "140004.087000", "140009.069000", "140009.072000", "140009.075000", "140009.078000", "140009.081000", "140009.084000", "140009.096000", "140009.099000", "140014.068000", "140014.071000", "140014.074000", "140014.077000", "140014.080000", "140014.083000", "140019.068000", "140019.071000", "140019.074000", "140019.077000", "140019.080000", "140019.083000", "140019.086000", "140019.089000", "140024.069000", "140024.072000", "140024.075000", "140024.078000", "140024.081000", "140024.084000", "140024.087000", "140029.068000", "140029.071000", "140029.074000", "140029.077000", "140029.080000", "140029.083000", "140029.086000", "140034.068000", "140034.071000", "140034.074000", "140034.077000", "140034.080000", "140034.083000", "140034.090000", "140039.069000", "140039.072000", "140039.082000", "140039.085000", "140039.088000", "140039.091000", "140039.094000", "140044.069000", "140044.072000", "140044.075000", "140044.078000", "140044.081000", "140044.084000", "140044.087000", "140049.068000", "140049.071000", "140049.074000", "140049.086000", "140049.089000", "140049.092000", "140049.095000", "140054.068000", "140054.071000", "140054.074000", "140054.077000", "140054.080000", "140054.083000", "140054.086000", "140059.069000", "140059.072000", "140059.086000", "140059.089000", "140059.092000", "140059.095000", "140059.099000", "140104.068000", "140104.071000", "140104.074000", "140104.077000", "140104.080000", "140104.083000", "140104.086000", "140109.068000", "140109.071000", "140109.074000", "140109.077000", "140109.080000", "140109.083000", "140109.086000", "140114.069000", "140114.072000", "140114.075000", "140114.078000", "140114.081000", "140114.084000", "140114.087000", "140119.069000", "140119.072000", "140119.075000", "140119.078000", "140119.081000", "140119.084000", "140119.092000", "140124.068000", "140124.071000", "140124.074000", "140124.077000", "140124.080000", "140124.083000", "140124.086000", "140129.068000", "140129.071000", "140129.074000", "140129.077000", "140129.080000", "140129.083000", "140129.086000", "140134.069000", "140134.072000", "140134.075000", "140134.078000", "140134.081000", "140134.084000", "140134.087000", "140134.090000", "140139.068000", "140139.071000", "140139.074000", "140139.077000", "140139.080000", "140139.083000", "140139.086000", "140144.068000", "140144.071000", "140144.074000", "140144.077000", "140144.087000", "140144.090000", "140144.093000", "140149.069000", "140149.072000", "140149.075000", "140149.078000", "140149.081000", "140149.084000", "140149.087000", "140154.069000", "140154.092000", "140154.095000", "140154.098000", "140154.101000", "140154.104000", "140154.107000", "140159.068000", "140159.071000", "140159.074000", "140159.077000", "140159.080000", "140159.083000", "140204.068000", "140204.071000", "140204.074000", "140204.077000", "140204.080000", "140209.069000", "140209.072000", "140209.075000", "140209.078000", "140209.081000", "140214.068000", "140214.071000", "140214.074000", "140214.077000", "140214.080000", "140219.068000", "140219.071000", "140219.074000", "140219.077000", "140219.080000", "140224.069000", "140224.072000", "140224.075000", "140224.078000", "140224.081000", "140229.069000", "140229.072000", "140229.075000", "140229.085000", "140229.088000", "140234.068000", "140234.071000", "140234.074000", "140234.077000", "140234.080000", "140239.068000", "140239.071000", "140239.074000", "140239.077000", "140239.080000", "140244.069000", "140244.072000", "140244.075000", "140244.078000", "140244.081000", "140249.068000", "140249.071000", "140249.074000", "140249.077000", "140249.080000", "140254.068000", "140254.071000", "140254.074000", "140254.077000", "140254.080000", "140259.069000", "140259.072000", "140259.075000", "140259.078000", "140259.081000", "140304.069000", "140304.072000", "140304.075000", "140304.078000", "140304.081000", "140309.068000", "140309.071000", "140309.074000", "140309.077000", "140309.080000", "140314.068000", "140314.071000", "140314.074000", "140314.077000", "140314.080000", "140318.445000", "140318.451000", "140318.455000", "140318.459000", "140318.463000"],
      "InstanceCreationTime": ["135949.105000", "135954.068000", "135954.071000", "135954.074000", "135954.077000", "135954.080000", "135954.083000", "135954.086000", "135959.068000", "135959.071000", "135959.074000", "135959.077000", "135959.080000", "135959.083000", "135959.086000", "140004.069000", "140004.072000", "140004.075000", "140004.078000", "140004.081000", "140004.084000", "140004.087000", "140009.069000", "140009.072000", "140009.075000", "140009.078000", "140009.081000", "140009.084000", "140009.096000", "140009.099000", "140014.068000", "140014.071000", "140014.074000", "140014.077000", "140014.080000", "140014.083000", "140019.068000", "140019.071000", "140019.074000", "140019.077000", "140019.080000", "140019.083000", "140019.086000", "140019.089000", "140024.069000", "140024.072000", "140024.075000", "140024.078000", "140024.081000", "140024.084000", "140024.087000", "140029.068000", "140029.071000", "140029.074000", "140029.077000", "140029.080000", "140029.083000", "140029.086000", "140034.068000", "140034.071000", "140034.074000", "140034.077000", "140034.080000", "140034.083000", "140034.090000", "140039.069000", "140039.072000", "140039.082000", "140039.085000", "140039.088000", "140039.091000", "140039.094000", "140044.069000", "140044.072000", "140044.075000", "140044.078000", "140044.081000", "140044.084000", "140044.087000", "140049.068000", "140049.071000", "140049.074000", "140049.086000", "140049.089000", "140049.092000", "140049.095000", "140054.068000", "140054.071000", "140054.074000", "140054.077000", "140054.080000", "140054.083000", "140054.086000", "140059.069000", "140059.072000", "140059.086000", "140059.089000", "140059.092000", "140059.095000", "140059.099000", "140104.068000", "140104.071000", "140104.074000", "140104.077000", "140104.080000", "140104.083000", "140104.086000", "140109.068000", "140109.071000", "140109.074000", "140109.077000", "140109.080000", "140109.083000", "140109.086000", "140114.069000", "140114.072000", "140114.075000", "140114.078000", "140114.081000", "140114.084000", "140114.087000", "140119.069000", "140119.072000", "140119.075000", "140119.078000", "140119.081000", "140119.084000", "140119.092000", "140124.068000", "140124.071000", "140124.074000", "140124.077000", "140124.080000", "140124.083000", "140124.086000", "140129.068000", "140129.071000", "140129.074000", "140129.077000", "140129.080000", "140129.083000", "140129.086000", "140134.069000", "140134.072000", "140134.075000", "140134.078000", "140134.081000", "140134.084000", "140134.087000", "140134.090000", "140139.068000", "140139.071000", "140139.074000", "140139.077000", "140139.080000", "140139.083000", "140139.086000", "140144.068000", "140144.071000", "140144.074000", "140144.077000", "140144.087000", "140144.090000", "140144.093000", "140149.069000", "140149.072000", "140149.075000", "140149.078000", "140149.081000", "140149.084000", "140149.087000", "140154.069000", "140154.092000", "140154.095000", "140154.098000", "140154.101000", "140154.104000", "140154.107000", "140159.068000", "140159.071000", "140159.074000", "140159.077000", "140159.080000", "140159.083000", "140204.068000", "140204.071000", "140204.074000", "140204.077000", "140204.080000", "140209.069000", "140209.072000", "140209.075000", "140209.078000", "140209.081000", "140214.068000", "140214.071000", "140214.074000", "140214.077000", "140214.080000", "140219.068000", "140219.071000", "140219.074000", "140219.077000", "140219.080000", "140224.069000", "140224.072000", "140224.075000", "140224.078000", "140224.081000", "140229.069000", "140229.072000", "140229.075000", "140229.085000", "140229.088000", "140234.068000", "140234.071000", "140234.074000", "140234.077000", "140234.080000", "140239.068000", "140239.071000", "140239.074000", "140239.077000", "140239.080000", "140244.069000", "140244.072000", "140244.075000", "140244.078000", "140244.081000", "140249.068000", "140249.071000", "140249.074000", "140249.077000", "140249.080000", "140254.068000", "140254.071000", "140254.074000", "140254.077000", "140254.080000", "140259.069000", "140259.072000", "140259.075000", "140259.078000", "140259.081000", "140304.069000", "140304.072000", "140304.075000", "140304.078000", "140304.081000", "140309.068000", "140309.071000", "140309.074000", "140309.077000", "140309.080000", "140314.068000", "140314.071000", "140314.074000", "140314.077000", "140314.080000", "140318.445000", "140318.451000", "140318.455000", "140318.459000", "140318.463000"],
      "InstanceNumber": [1, 2, 3, 4, 5, 6, 7, 8, 9, 10, 11, 12, 13, 14, 15, 16, 17, 18, 19, 20, 21, 22, 23, 24, 25, 26, 27, 28, 29, 30, 31, 32, 33, 34, 35, 36, 37, 38, 39, 40, 41, 42, 43, 44, 45, 46, 47, 48, 49, 50, 51, 52, 53, 54, 55, 56, 57, 58, 59, 60, 61, 62, 63, 64, 65, 66, 67, 68, 69, 70, 71, 72, 73, 74, 75, 76, 77, 78, 79, 80, 81, 82, 83, 84, 85, 86, 87, 88, 89, 90, 91, 92, 93, 94, 95, 96, 97, 98, 99, 100, 101, 102, 103, 104, 105, 106, 107, 108, 109, 110, 111, 112, 113, 114, 115, 116, 117, 118, 119, 120, 121, 122, 123, 124, 125, 126, 127, 128, 129, 130, 131, 132, 133, 134, 135, 136, 137, 138, 139, 140, 141, 142, 143, 144, 145, 146, 147, 148, 149, 150, 151, 152, 153, 154, 155, 156, 157, 158, 159, 160, 161, 162, 163, 164, 165, 166, 167, 168, 169, 170, 171, 172, 173, 174, 175, 176, 177, 178, 179, 180, 181, 182, 183, 184, 185, 186, 187, 188, 189, 190, 191, 192, 193, 194, 195, 196, 197, 198, 199, 200, 201, 202, 203, 204, 205, 206, 207, 208, 209, 210, 211, 212, 213, 214, 215, 216, 217, 218, 219, 220, 221, 222, 223, 224, 225, 226, 227, 228, 229, 230, 231, 232, 233, 234, 235, 236, 237, 238, 239, 240, 241, 242, 243, 244, 245, 246, 247, 248, 249, 250, 251, 252, 253, 254, 255, 256, 257, 258, 259, 260, 261, 262, 263, 264],
      "LargestImagePixelValue": [31551, 30420, 30472, 30329, 30087, 29726, 29659, 29534, 29752, 29673, 29844, 29765, 29795, 29659, 29698, 30032, 29696, 29755, 30267, 29790, 29742, 30263, 29724, 29739, 29927, 30140, 30300, 29892, 29797, 30326, 29871, 30121, 30101, 30470, 30477, 29706, 29909, 29916, 29919, 29906, 30438, 29750, 30098, 30747, 30060, 29817, 30276, 29476, 30208, 30198, 29983, 29853, 30366, 29711, 29727, 29804, 30413, 29758, 29675, 30396, 30302, 29985, 29981, 29854, 29711, 29943, 30108, 29762, 29925, 30027, 29687, 29972, 30127, 29818, 29751, 30161, 30047, 29697, 29775, 30311, 30193, 30535, 30313, 30052, 29730, 29866, 30210, 30026, 29900, 29872, 29967, 30320, 30200, 31701, 30368, 29634, 29277, 29468, 29481, 29288, 29616, 29848, 29331, 29907, 30386, 30519, 30128, 29976, 29366, 29300, 30273, 29612, 29313, 29623, 29260, 29237, 29521, 30237, 29491, 29707, 30166, 30043, 30024, 29997, 29929, 29892, 29712, 29879, 30042, 30311, 29777, 29909, 29650, 29558, 29916, 29649, 30080, 29764, 30227, 30285, 30014, 30127, 30669, 30648, 30240, 29813, 30044, 29676, 29458, 29869, 29914, 30120, 30341, 30068, 29841, 30033, 30221, 30345, 31071, 30439, 30141, 30028, 30041, 29992, 30165, 30134, 30063, 30205, 30727, 30569, 30332, 30691, 30038, 30389, 30126, 30030, 29777, 29924, 30026, 29767, 30465, 30183, 29921, 29741, 29863, 29749, 30063, 30215, 29750, 30274, 30286, 30223, 30259, 29968, 30441, 30316, 29940, 29859, 29852, 29629, 30569, 30159, 30272, 30445, 30632, 30314, 30755, 31133, 30224, 30138, 30314, 30349, 30473, 31032, 30861, 30351, 29952, 30375, 29768, 30434, 30499, 30825, 30386, 30185, 29942, 29985, 29917, 29531, 29962, 29892, 30403, 30109, 30565, 30795, 29821, 30149, 29974, 30060, 29768, 30110, 30219, 29998, 30512, 30478, 30270, 30574, 29897, 30084, 30122, 30006, 30308, 30449, 30586, 30335, 30308, 29844, 30198, 29795, 29809, 30171, 29689, 29993, 30077, 30056],
      "WindowCenter": [9680.0, 9654.0, 9661.0, 9665.0, 9665.0, 9667.0, 9659.0, 9639.0, 9632.0, 9631.0, 9638.0, 9638.0, 9639.0, 9642.0, 9650.0, 9655.0, 9657.0, 9659.0, 9678.0, 9668.0, 9676.0, 9695.0, 9691.0, 9686.0, 9692.0, 9698.0, 9705.0, 9695.0, 9693.0, 9698.0, 9686.0, 9689.0, 9695.0, 9697.0, 9696.0, 9693.0, 9694.0, 9693.0, 9693.0, 9686.0, 9686.0, 9681.0, 9682.0, 9687.0, 9680.0, 9684.0, 9695.0, 9671.0, 9689.0, 9685.0, 9680.0, 9667.0, 9671.0, 9657.0, 9659.0, 9674.0, 9685.0, 9683.0, 9686.0, 9690.0, 9682.0, 9677.0, 9681.0, 9667.0, 9675.0, 9680.0, 9672.0, 9674.0, 9674.0, 9666.0, 9659.0, 9657.0, 9652.0, 9651.0, 9664.0, 9666.0, 9666.0, 9666.0, 9675.0, 9674.0, 9667.0, 9672.0, 9671.0, 9666.0, 9675.0, 9685.0, 9699.0, 9708.0, 9705.0, 9701.0, 9701.0, 9639.0, 9684.0, 9691.0, 9666.0, 9646.0, 9630.0, 9629.0, 9622.0, 9618.0, 9630.0, 9633.0, 9643.0, 9663.0, 9675.0, 9673.0, 9660.0, 9652.0, 9623.0, 9628.0, 9614.0, 9621.0, 9614.0, 9626.0, 9609.0, 9628.0, 9634.0, 9639.0, 9628.0, 9642.0, 9641.0, 9631.0, 9628.0, 9622.0, 9628.0, 9631.0, 9636.0, 9635.0, 9644.0, 9649.0, 9632.0, 9631.0, 9632.0, 9628.0, 9631.0, 9632.0, 9639.0, 9632.0, 9644.0, 9647.0, 9648.0, 9654.0, 9659.0, 9650.0, 9642.0, 9630.0, 9629.0, 9621.0, 9616.0, 9625.0, 9629.0, 9635.0, 9642.0, 9636.0, 9630.0, 9643.0, 9653.0, 9658.0, 9662.0, 9643.0, 9635.0, 9629.0, 9628.0, 9628.0, 9635.0, 9633.0, 9640.0, 9654.0, 9659.0, 9652.0, 9661.0, 9675.0, 9657.0, 9653.0, 9645.0, 9622.0, 9620.0, 9627.0, 9626.0, 9628.0, 9642.0, 9638.0, 9641.0, 9637.0, 9622.0, 9613.0, 9611.0, 9604.0, 9596.0, 9616.0, 9626.0, 9627.0, 9634.0, 9630.0, 9633.0, 9634.0, 9630.0, 9622.0, 9623.0, 9629.0, 9639.0, 9635.0, 9658.0, 9675.0, 9690.0, 9674.0, 9667.0, 9656.0, 9638.0, 9629.0, 9648.0, 9649.0, 9651.0, 9653.0, 9647.0, 9634.0, 9627.0, 9633.0, 9625.0, 9635.0, 9636.0, 9641.0, 9626.0, 9612.0, 9612.0, 9601.0, 9602.0, 9608.0, 9620.0, 9632.0, 9651.0, 9638.0, 9633.0, 9633.0, 9606.0, 9611.0, 9612.0, 9609.0, 9614.0, 9621.0, 9620.0, 9619.0, 9617.0, 9608.0, 9607.0, 9613.0, 9597.0, 9613.0, 9628.0, 9621.0, 9628.0, 9628.0, 9625.0, 9618.0, 9611.0, 9595.0, 9593.0, 9590.0, 9587.0, 9592.0, 9604.0, 9619.0, 9635.0, 9628.0],
      "WindowWidth": [20698.0, 20635.0, 20648.0, 20657.0, 20653.0, 20658.0, 20639.0, 20592.0, 20570.0, 20570.0, 20586.0, 20589.0, 20592.0, 20601.0, 20619.0, 20627.0, 20632.0, 20642.0, 20676.0, 20663.0, 20682.0, 20718.0, 20717.0, 20710.0, 20721.0, 20736.0, 20751.0, 20732.0, 20725.0, 20733.0, 20707.0, 20707.0, 20723.0, 20724.0, 20722.0, 20722.0, 20724.0, 20720.0, 20723.0, 20706.0, 20698.0, 20690.0, 20693.0, 20698.0, 20689.0, 20701.0, 20722.0, 20676.0, 20709.0, 20700.0, 20686.0, 20661.0, 20666.0, 20634.0, 20645.0, 20677.0, 20698.0, 20701.0, 20709.0, 20711.0, 20694.0, 20685.0, 20688.0, 20661.0, 20677.0, 20684.0, 20670.0, 20676.0, 20674.0, 20654.0, 20640.0, 20635.0, 20625.0, 20626.0, 20652.0, 20657.0, 20654.0, 20656.0, 20675.0, 20672.0, 20659.0, 20666.0, 20662.0, 20658.0, 20681.0, 20703.0, 20739.0, 20756.0, 20750.0, 20741.0, 20741.0, 20599.0, 20698.0, 20700.0, 20650.0, 20608.0, 20574.0, 20570.0, 20553.0, 20544.0, 20570.0, 20578.0, 20606.0, 20655.0, 20676.0, 20670.0, 20643.0, 20620.0, 20557.0, 20564.0, 20530.0, 20553.0, 20536.0, 20560.0, 20530.0, 20574.0, 20587.0, 20594.0, 20575.0, 20604.0, 20599.0, 20577.0, 20568.0, 20556.0, 20566.0, 20578.0, 20593.0, 20587.0, 20604.0, 20612.0, 20578.0, 20577.0, 20580.0, 20575.0, 20577.0, 20580.0, 20592.0, 20580.0, 20607.0, 20612.0, 20615.0, 20630.0, 20636.0, 20613.0, 20597.0, 20572.0, 20565.0, 20549.0, 20541.0, 20562.0, 20568.0, 20581.0, 20595.0, 20582.0, 20572.0, 20597.0, 20620.0, 20630.0, 20634.0, 20595.0, 20579.0, 20569.0, 20565.0, 20567.0, 20584.0, 20583.0, 20599.0, 20630.0, 20636.0, 20623.0, 20643.0, 20672.0, 20634.0, 20622.0, 20600.0, 20550.0, 20547.0, 20558.0, 20556.0, 20565.0, 20594.0, 20586.0, 20590.0, 20582.0, 20546.0, 20524.0, 20523.0, 20505.0, 20492.0, 20534.0, 20556.0, 20563.0, 20578.0, 20571.0, 20573.0, 20576.0, 20570.0, 20552.0, 20556.0, 20568.0, 20583.0, 20581.0, 20631.0, 20672.0, 20704.0, 20672.0, 20649.0, 20622.0, 20586.0, 20566.0, 20605.0, 20612.0, 20614.0, 20611.0, 20600.0, 20575.0, 20562.0, 20572.0, 20563.0, 20579.0, 20585.0, 20590.0, 20554.0, 20527.0, 20521.0, 20495.0, 20501.0, 20518.0, 20545.0, 20579.0, 20614.0, 20590.0, 20575.0, 20569.0, 20514.0, 20522.0, 20523.0, 20514.0, 20534.0, 20547.0, 20545.0, 20543.0, 20536.0, 20514.0, 20511.0, 20521.0, 20495.0, 20532.0, 20565.0, 20550.0, 20565.0, 20565.0, 20553.0, 20537.0, 20519.0, 20481.0, 20476.0, 20473.0, 20464.0, 20479.0, 20508.0, 20541.0, 20577.0, 20562.0]
    },
    "slices": {}
  }
}