{
  "AcquisitionMatrixPE": 104,
  "AcquisitionNumber": 1,
  "AcquisitionTime": "14:03:48.475000",
  "BandwidthPerPixelPhaseEncode": 16.578,
  "BaseResolution": 104,
  "BodyPartExamined": "BRAIN",
  "ConsistencyInfo": "N4_VE11C_LATEST_20160120",
  "ConversionSoftware": "dcm2niix",
  "ConversionSoftwareVersion": "v1.0.20190410  GCC6.3.0",
  "DerivedVendorReportedEchoSpacing": 0.000580009,
  "DeviceSerialNumber": "166018",
  "DwellTime": 2.1e-06,
  "EchoTime": 0.037,
  "EchoTrainLength": 104,
  "EffectiveEchoSpacing": 0.000580009,
  "FlipAngle": 68,
  "ImageComments": "Unaliased_MB6_PE3_LB",
  "ImageOrientationPatientDICOM": [0.999634, -0.0188691, 0.0193913, 0.0235577, 0.959487, -0.280768],
  "ImageType": [
    "ORIGINAL",
    "PRIMARY",
    "M",
    "MB",
    "ND",
    "MOSAIC"
],
  "ImagingFrequency": 123.191,
  "InPlanePhaseEncodingDirectionDICOM": "COL",
  "InstitutionAddress": "Washington_Place_6_NYC_NYC_US_10003",
  "InstitutionName": "NYU_Center_for_Brain_Imaging",
  "InstitutionalDepartmentName": "Department",
  "MRAcquisitionType": "2D",
  "MagneticFieldStrength": 3,
  "Manufacturer": "Siemens",
  "ManufacturersModelName": "Prisma",
  "Modality": "MR",
  "MultibandAccelerationFactor": 6,
  "PartialFourier": 1,
  "PatientPosition": "HFS",
  "PercentPhaseFOV": 100,
  "PhaseEncodingDirection": "j",
  "PhaseEncodingSteps": 104,
  "PhaseResolution": 1,
  "PixelBandwidth": 2290,
  "ProcedureStepDescription": "Investigators_Winawer",
  "ProtocolName": "task-sfprescaled_cmrr_mbepi_s6_2mm_66sl_PA_TR1.0",
  "PulseSequenceDetails": "%CustomerSeq%_cmrr_mbep2d_bold",
  "ReceiveCoilActiveElements": "HC1-7",
  "ReceiveCoilName": "HeadNeck_64",
  "ReconMatrixPE": 104,
  "RepetitionTime": 1,
  "SAR": 0.0564105,
  "ScanOptions": "FS",
  "ScanningSequence": "EP",
  "SequenceName": "epfid2d1_104",
  "SequenceVariant": "SK_SS",
  "SeriesDescription": "task-sfprescaled_cmrr_mbepi_s6_2mm_66sl_PA_TR1.0",
  "SeriesNumber": 16,
  "ShimSetting": [232, -12605, -8478, 466, -34, 92, -173, 55],
  "SliceThickness": 2,
  "SliceTiming": [0, 0.535, 0.09, 0.625, 0.18, 0.7125, 0.2675, 0.8025, 0.3575, 0.8925, 0.445, 0, 0.535, 0.09, 0.625, 0.18, 0.7125, 0.2675, 0.8025, 0.3575, 0.8925, 0.445, 0, 0.535, 0.09, 0.625, 0.18, 0.7125, 0.2675, 0.8025, 0.3575, 0.8925, 0.445, 0, 0.535, 0.09, 0.625, 0.18, 0.7125, 0.2675, 0.8025, 0.3575, 0.8925, 0.445, 0, 0.535, 0.09, 0.625, 0.18, 0.7125, 0.2675, 0.8025, 0.3575, 0.8925, 0.445, 0, 0.535, 0.09, 0.625, 0.18, 0.7125, 0.2675, 0.8025, 0.3575, 0.8925, 0.445],
  "SoftwareVersions": "syngo_MR_E11",
  "SpacingBetweenSlices": 2,
  "StationName": "AWP166018",
  "TaskName": "sfprescaled",
  "TotalReadoutTime": 0.0597409,
  "TxRefAmp": 209.628,
  "WipMemBlock": "ce706ca7-c0e3-4c80-920e-365af659f99b||Sequence: R016 ve11c/master r/8780670; Nov 27 2017 15:05:12 by eja",
  "dcmmeta_affine": [
    [-1.999267816543579, 0.04711548238992691, 0.026615776121616364, 107.22503662109375],
    [0.03773821145296097, 1.9189730882644653, -0.5622437596321106, -71.80593872070312],
    [0.038782671093940735, 0.5615357160568237, 1.9191596508026123, -70.48042297363281],
    [0.0, 0.0, 0.0, 1.0]
],
  "dcmmeta_reorient_transform": [
    [0.0, -1.0, 0.0, 103.0],
    [1.0, 0.0, 0.0, 0.0],
    [0.0, 0.0, 1.0, 0.0],
    [0.0, 0.0, 0.0, 1.0]
],
  "dcmmeta_shape": [104, 104, 66, 264],
  "dcmmeta_slice_dim": 2,
  "dcmmeta_version": 0.6,
  "global": {
    "const": {
      "AccessionNumber": "juLLg1bg",
  "NumberOfVolumes": 264,
      "AcquisitionMatrix": [104, 0, 0, 104],
      "AngioFlag": "N",
      "BitsAllocated": 16,
      "BitsStored": 16,
      "BodyPartExamined": "BRAIN",
      "Columns": 936,
      "EchoNumbers": 1,
      "EchoTime": 37.0,
      "EchoTrainLength": 104,
      "FlipAngle": 68.0,
      "HighBit": 15,
      "ImageOrientationPatient": [0.99963389946681, -0.0188691054203, 0.01939133562749, 0.02355774109317, 0.95948655306514, -0.2807678530775],
      "ImagePositionPatient": [-963.37337831453, -908.44201127205, 204.82301902709],
      "ImageType": [
        "ORIGINAL",
        "PRIMARY",
        "M",
        "MB",
        "ND",
        "MOSAIC"
],
      "ImagedNucleus": "1H",
      "ImagingFrequency": 123.190861,
      "InPlanePhaseEncodingDirection": "COL",
      "MRAcquisitionType": "2D",
      "MagneticFieldStrength": 3.0,
      "Manufacturer": "SIEMENS",
      "ManufacturerModelName": "Prisma",
      "Modality": "MR",
      "NumberOfAverages": 1.0,
      "NumberOfPhaseEncodingSteps": 104,
      "PercentPhaseFieldOfView": 100.0,
      "PercentSampling": 100.0,
      "PerformedProcedureStepStartTime": "133436.477000",
      "PhotometricInterpretation": "MONOCHROME2",
      "PixelBandwidth": 2290.0,
      "PixelRepresentation": 0,
      "PixelSpacing": [2.0, 2.0],
      "ProtocolName": "task-sfprescaled_cmrr_mbepi_s6_2mm_66sl_PA_TR1.0",
      "RepetitionTime": 1000.0,
      "Rows": 936,
      "SAR": 0.05641051860443,
      "SamplesPerPixel": 1,
      "ScanOptions": "FS",
      "ScanningSequence": "EP",
      "SequenceName": "epfid2d1_104",
      "SequenceVariant": [
        "SK",
        "SS"
],
      "SeriesDescription": "task-sfprescaled_cmrr_mbepi_s6_2mm_66sl_PA_TR1.0",
      "SeriesNumber": 16,
      "SeriesTime": "140443.501000",
      "SliceLocation": -46.01843014342,
      "SliceThickness": 2.0,
      "SmallestImagePixelValue": 0,
      "SoftwareVersions": "syngo MR E11",
      "SpacingBetweenSlices": 2.0000000409259,
      "SpecificCharacterSet": "ISO_IR 100",
      "StudyID": "2",
      "StudyTime": "133436.380000",
      "TransmitCoilName": "Body",
      "VariableFlipAngleFlag": "N",
      "WindowCenterWidthExplanation": "Algo1",
      "dBdt": 0.0},
    "slices": {}
  },
  "time": {
    "samples": {
      "AcquisitionNumber": [1, 2, 3, 4, 5, 6, 7, 8, 9, 10, 11, 12, 13, 14, 15, 16, 17, 18, 19, 20, 21, 22, 23, 24, 25, 26, 27, 28, 29, 30, 31, 32, 33, 34, 35, 36, 37, 38, 39, 40, 41, 42, 43, 44, 45, 46, 47, 48, 49, 50, 51, 52, 53, 54, 55, 56, 57, 58, 59, 60, 61, 62, 63, 64, 65, 66, 67, 68, 69, 70, 71, 72, 73, 74, 75, 76, 77, 78, 79, 80, 81, 82, 83, 84, 85, 86, 87, 88, 89, 90, 91, 92, 93, 94, 95, 96, 97, 98, 99, 100, 101, 102, 103, 104, 105, 106, 107, 108, 109, 110, 111, 112, 113, 114, 115, 116, 117, 118, 119, 120, 121, 122, 123, 124, 125, 126, 127, 128, 129, 130, 131, 132, 133, 134, 135, 136, 137, 138, 139, 140, 141, 142, 143, 144, 145, 146, 147, 148, 149, 150, 151, 152, 153, 154, 155, 156, 157, 158, 159, 160, 161, 162, 163, 164, 165, 166, 167, 168, 169, 170, 171, 172, 173, 174, 175, 176, 177, 178, 179, 180, 181, 182, 183, 184, 185, 186, 187, 188, 189, 190, 191, 192, 193, 194, 195, 196, 197, 198, 199, 200, 201, 202, 203, 204, 205, 206, 207, 208, 209, 210, 211, 212, 213, 214, 215, 216, 217, 218, 219, 220, 221, 222, 223, 224, 225, 226, 227, 228, 229, 230, 231, 232, 233, 234, 235, 236, 237, 238, 239, 240, 241, 242, 243, 244, 245, 246, 247, 248, 249, 250, 251, 252, 253, 254, 255, 256, 257, 258, 259, 260, 261, 262, 263, 264],
      "AcquisitionTime": ["140348.475000", "140349.475000", "140350.475000", "140351.475000", "140352.475000", "140353.475000", "140354.475000", "140355.475000", "140356.475000", "140357.475000", "140358.475000", "140359.475000", "140400.475000", "140401.475000", "140402.475000", "140403.475000", "140404.475000", "140405.475000", "140406.475000", "140407.475000", "140408.475000", "140409.475000", "140410.475000", "140411.475000", "140412.475000", "140413.475000", "140414.475000", "140415.475000", "140416.475000", "140417.475000", "140418.475000", "140419.475000", "140420.475000", "140421.475000", "140422.475000", "140423.475000", "140424.475000", "140425.475000", "140426.475000", "140427.475000", "140428.475000", "140429.475000", "140430.475000", "140431.475000", "140432.475000", "140433.475000", "140434.475000", "140435.475000", "140436.475000", "140437.475000", "140438.475000", "140439.475000", "140440.475000", "140441.475000", "140442.475000", "140443.475000", "140444.475000", "140445.475000", "140446.475000", "140447.475000", "140448.475000", "140449.475000", "140450.475000", "140451.475000", "140452.475000", "140453.475000", "140454.475000", "140455.475000", "140456.475000", "140457.475000", "140458.475000", "140459.475000", "140500.475000", "140501.475000", "140502.475000", "140503.475000", "140504.475000", "140505.475000", "140506.475000", "140507.475000", "140508.475000", "140509.475000", "140510.475000", "140511.475000", "140512.475000", "140513.475000", "140514.475000", "140515.475000", "140516.475000", "140517.475000", "140518.475000", "140519.475000", "140520.475000", "140521.475000", "140522.475000", "140523.475000", "140524.475000", "140525.475000", "140526.475000", "140527.475000", "140528.475000", "140529.475000", "140530.475000", "140531.475000", "140532.475000", "140533.475000", "140534.475000", "140535.475000", "140536.475000", "140537.475000", "140538.475000", "140539.475000", "140540.475000", "140541.475000", "140542.475000", "140543.475000", "140544.475000", "140545.475000", "140546.475000", "140547.475000", "140548.475000", "140549.475000", "140550.475000", "140551.475000", "140552.475000", "140553.475000", "140554.475000", "140555.475000", "140556.475000", "140557.475000", "140558.475000", "140559.475000", "140600.475000", "140601.475000", "140602.475000", "140603.475000", "140604.475000", "140605.475000", "140606.475000", "140607.475000", "140608.475000", "140609.475000", "140610.475000", "140611.475000", "140612.475000", "140613.475000", "140614.475000", "140615.475000", "140616.475000", "140617.475000", "140618.475000", "140619.475000", "140620.475000", "140621.475000", "140622.475000", "140623.475000", "140624.475000", "140625.475000", "140626.475000", "140627.475000", "140628.475000", "140629.475000", "140630.475000", "140631.475000", "140632.475000", "140633.475000", "140634.475000", "140635.475000", "140636.475000", "140637.475000", "140638.475000", "140639.475000", "140640.475000", "140641.475000", "140642.475000", "140643.475000", "140644.475000", "140645.475000", "140646.475000", "140647.475000", "140648.475000", "140649.475000", "140650.475000", "140651.475000", "140652.475000", "140653.475000", "140654.475000", "140655.475000", "140656.475000", "140657.475000", "140658.475000", "140659.475000", "140700.475000", "140701.475000", "140702.475000", "140703.475000", "140704.475000", "140705.475000", "140706.475000", "140707.475000", "140708.475000", "140709.475000", "140710.475000", "140711.475000", "140712.475000", "140713.475000", "140714.475000", "140715.475000", "140716.475000", "140717.475000", "140718.475000", "140719.475000", "140720.475000", "140721.475000", "140722.475000", "140723.475000", "140724.475000", "140725.475000", "140726.475000", "140727.475000", "140728.475000", "140729.475000", "140730.475000", "140731.475000", "140732.475000", "140733.475000", "140734.475000", "140735.475000", "140736.475000", "140737.475000", "140738.475000", "140739.475000", "140740.475000", "140741.475000", "140742.475000", "140743.475000", "140744.475000", "140745.475000", "140746.475000", "140747.475000", "140748.475000", "140749.475000", "140750.475000", "140751.475000", "140752.475000", "140753.475000", "140754.475000", "140755.475000", "140756.475000", "140757.475000", "140758.475000", "140759.475000", "140800.475000", "140801.475000", "140802.475000", "140803.475000", "140804.475000", "140805.475000", "140806.475000", "140807.475000", "140808.475000", "140809.475000", "140810.475000", "140811.475000"],
      "ContentTime": ["140443.503000", "140443.507000", "140443.510000", "140443.513000", "140443.531000", "140443.534000", "140443.537000", "140448.502000", "140448.505000", "140448.508000", "140448.511000", "140448.514000", "140448.517000", "140448.520000", "140453.502000", "140453.505000", "140453.508000", "140453.511000", "140453.520000", "140453.523000", "140453.526000", "140458.502000", "140458.505000", "140458.508000", "140458.511000", "140458.518000", "140458.521000", "140458.524000", "140503.503000", "140503.506000", "140503.509000", "140503.512000", "140503.515000", "140503.518000", "140503.521000", "140508.502000", "140508.505000", "140508.508000", "140508.511000", "140508.514000", "140508.517000", "140508.520000", "140513.502000", "140513.505000", "140513.508000", "140513.511000", "140513.514000", "140513.517000", "140513.520000", "140518.502000", "140518.505000", "140518.508000", "140518.511000", "140518.514000", "140518.517000", "140518.520000", "140523.502000", "140523.505000", "140523.508000", "140523.511000", "140523.514000", "140523.517000", "140523.520000", "140523.523000", "140528.502000", "140528.510000", "140528.513000", "140528.516000", "140528.519000", "140528.522000", "140528.525000", "140533.502000", "140533.505000", "140533.523000", "140533.526000", "140533.529000", "140533.532000", "140533.535000", "140538.503000", "140538.506000", "140538.509000", "140538.512000", "140538.515000", "140538.518000", "140538.521000", "140543.502000", "140543.521000", "140543.524000", "140543.527000", "140543.530000", "140543.545000", "140543.548000", "140548.502000", "140548.505000", "140548.508000", "140548.511000", "140548.514000", "140548.517000", "140548.520000", "140553.502000", "140553.505000", "140553.508000", "140553.511000", "140553.514000", "140553.517000", "140553.520000", "140558.502000", "140558.505000", "140558.508000", "140558.511000", "140558.520000", "140558.523000", "140558.526000", "140603.502000", "140603.505000", "140603.508000", "140603.511000", "140603.514000", "140603.517000", "140603.520000", "140608.502000", "140608.505000", "140608.508000", "140608.511000", "140608.514000", "140608.517000", "140608.520000", "140613.503000", "140613.506000", "140613.509000", "140613.512000", "140613.515000", "140613.518000", "140613.521000", "140618.502000", "140618.505000", "140618.508000", "140618.511000", "140618.514000", "140618.517000", "140618.520000", "140623.502000", "140623.505000", "140623.508000", "140623.511000", "140623.514000", "140623.517000", "140623.520000", "140628.502000", "140628.505000", "140628.508000", "140628.511000", "140628.514000", "140628.517000", "140628.520000", "140633.502000", "140633.505000", "140633.509000", "140633.512000", "140633.515000", "140633.518000", "140633.521000", "140633.524000", "140638.502000", "140638.505000", "140638.508000", "140638.511000", "140638.514000", "140638.517000", "140643.502000", "140643.505000", "140643.508000", "140643.511000", "140643.514000", "140648.503000", "140648.506000", "140648.509000", "140648.512000", "140648.515000", "140653.502000", "140653.505000", "140653.508000", "140653.511000", "140653.514000", "140658.502000", "140658.505000", "140658.508000", "140658.511000", "140658.514000", "140703.502000", "140703.505000", "140703.508000", "140703.511000", "140703.514000", "140708.502000", "140708.505000", "140708.508000", "140708.511000", "140708.514000", "140713.502000", "140713.505000", "140713.508000", "140713.511000", "140713.514000", "140718.502000", "140718.505000", "140718.508000", "140718.511000", "140718.514000", "140723.503000", "140723.506000", "140723.509000", "140723.512000", "140723.515000", "140728.502000", "140728.505000", "140728.508000", "140728.511000", "140728.514000", "140733.502000", "140733.505000", "140733.508000", "140733.511000", "140733.514000", "140738.502000", "140738.505000", "140738.508000", "140738.511000", "140738.514000", "140743.502000", "140743.505000", "140743.508000", "140743.511000", "140743.514000", "140748.502000", "140748.505000", "140748.508000", "140748.511000", "140748.514000", "140753.502000", "140753.505000", "140753.508000", "140753.511000", "140753.514000", "140758.503000", "140758.506000", "140758.509000", "140758.512000", "140758.515000", "140803.502000", "140803.505000", "140803.508000", "140803.511000", "140803.514000", "140808.502000", "140808.505000", "140808.508000", "140808.511000", "140808.514000", "140812.867000", "140812.871000", "140812.874000", "140812.877000", "140812.880000"],
      "InstanceCreationTime": ["140443.503000", "140443.507000", "140443.510000", "140443.513000", "140443.531000", "140443.534000", "140443.537000", "140448.502000", "140448.505000", "140448.508000", "140448.511000", "140448.514000", "140448.517000", "140448.520000", "140453.502000", "140453.505000", "140453.508000", "140453.511000", "140453.520000", "140453.523000", "140453.526000", "140458.502000", "140458.505000", "140458.508000", "140458.511000", "140458.518000", "140458.521000", "140458.524000", "140503.503000", "140503.506000", "140503.509000", "140503.512000", "140503.515000", "140503.518000", "140503.521000", "140508.502000", "140508.505000", "140508.508000", "140508.511000", "140508.514000", "140508.517000", "140508.520000", "140513.502000", "140513.505000", "140513.508000", "140513.511000", "140513.514000", "140513.517000", "140513.520000", "140518.502000", "140518.505000", "140518.508000", "140518.511000", "140518.514000", "140518.517000", "140518.520000", "140523.502000", "140523.505000", "140523.508000", "140523.511000", "140523.514000", "140523.517000", "140523.520000", "140523.523000", "140528.502000", "140528.510000", "140528.513000", "140528.516000", "140528.519000", "140528.522000", "140528.525000", "140533.502000", "140533.505000", "140533.523000", "140533.526000", "140533.529000", "140533.532000", "140533.535000", "140538.503000", "140538.506000", "140538.509000", "140538.512000", "140538.515000", "140538.518000", "140538.521000", "140543.502000", "140543.521000", "140543.524000", "140543.527000", "140543.530000", "140543.545000", "140543.548000", "140548.502000", "140548.505000", "140548.508000", "140548.511000", "140548.514000", "140548.517000", "140548.520000", "140553.502000", "140553.505000", "140553.508000", "140553.511000", "140553.514000", "140553.517000", "140553.520000", "140558.502000", "140558.505000", "140558.508000", "140558.511000", "140558.520000", "140558.523000", "140558.526000", "140603.502000", "140603.505000", "140603.508000", "140603.511000", "140603.514000", "140603.517000", "140603.520000", "140608.502000", "140608.505000", "140608.508000", "140608.511000", "140608.514000", "140608.517000", "140608.520000", "140613.503000", "140613.506000", "140613.509000", "140613.512000", "140613.515000", "140613.518000", "140613.521000", "140618.502000", "140618.505000", "140618.508000", "140618.511000", "140618.514000", "140618.517000", "140618.520000", "140623.502000", "140623.505000", "140623.508000", "140623.511000", "140623.514000", "140623.517000", "140623.520000", "140628.502000", "140628.505000", "140628.508000", "140628.511000", "140628.514000", "140628.517000", "140628.520000", "140633.502000", "140633.505000", "140633.509000", "140633.512000", "140633.515000", "140633.518000", "140633.521000", "140633.524000", "140638.502000", "140638.505000", "140638.508000", "140638.511000", "140638.514000", "140638.517000", "140643.502000", "140643.505000", "140643.508000", "140643.511000", "140643.514000", "140648.503000", "140648.506000", "140648.509000", "140648.512000", "140648.515000", "140653.502000", "140653.505000", "140653.508000", "140653.511000", "140653.514000", "140658.502000", "140658.505000", "140658.508000", "140658.511000", "140658.514000", "140703.502000", "140703.505000", "140703.508000", "140703.511000", "140703.514000", "140708.502000", "140708.505000", "140708.508000", "140708.511000", "140708.514000", "140713.502000", "140713.505000", "140713.508000", "140713.511000", "140713.514000", "140718.502000", "140718.505000", "140718.508000", "140718.511000", "140718.514000", "140723.503000", "140723.506000", "140723.509000", "140723.512000", "140723.515000", "140728.502000", "140728.505000", "140728.508000", "140728.511000", "140728.514000", "140733.502000", "140733.505000", "140733.508000", "140733.511000", "140733.514000", "140738.502000", "140738.505000", "140738.508000", "140738.511000", "140738.514000", "140743.502000", "140743.505000", "140743.508000", "140743.511000", "140743.514000", "140748.502000", "140748.505000", "140748.508000", "140748.511000", "140748.514000", "140753.502000", "140753.505000", "140753.508000", "140753.511000", "140753.514000", "140758.503000", "140758.506000", "140758.509000", "140758.512000", "140758.515000", "140803.502000", "140803.505000", "140803.508000", "140803.511000", "140803.514000", "140808.502000", "140808.505000", "140808.508000", "140808.511000", "140808.514000", "140812.867000", "140812.871000", "140812.874000", "140812.877000", "140812.880000"],
      "InstanceNumber": [1, 2, 3, 4, 5, 6, 7, 8, 9, 10, 11, 12, 13, 14, 15, 16, 17, 18, 19, 20, 21, 22, 23, 24, 25, 26, 27, 28, 29, 30, 31, 32, 33, 34, 35, 36, 37, 38, 39, 40, 41, 42, 43, 44, 45, 46, 47, 48, 49, 50, 51, 52, 53, 54, 55, 56, 57, 58, 59, 60, 61, 62, 63, 64, 65, 66, 67, 68, 69, 70, 71, 72, 73, 74, 75, 76, 77, 78, 79, 80, 81, 82, 83, 84, 85, 86, 87, 88, 89, 90, 91, 92, 93, 94, 95, 96, 97, 98, 99, 100, 101, 102, 103, 104, 105, 106, 107, 108, 109, 110, 111, 112, 113, 114, 115, 116, 117, 118, 119, 120, 121, 122, 123, 124, 125, 126, 127, 128, 129, 130, 131, 132, 133, 134, 135, 136, 137, 138, 139, 140, 141, 142, 143, 144, 145, 146, 147, 148, 149, 150, 151, 152, 153, 154, 155, 156, 157, 158, 159, 160, 161, 162, 163, 164, 165, 166, 167, 168, 169, 170, 171, 172, 173, 174, 175, 176, 177, 178, 179, 180, 181, 182, 183, 184, 185, 186, 187, 188, 189, 190, 191, 192, 193, 194, 195, 196, 197, 198, 199, 200, 201, 202, 203, 204, 205, 206, 207, 208, 209, 210, 211, 212, 213, 214, 215, 216, 217, 218, 219, 220, 221, 222, 223, 224, 225, 226, 227, 228, 229, 230, 231, 232, 233, 234, 235, 236, 237, 238, 239, 240, 241, 242, 243, 244, 245, 246, 247, 248, 249, 250, 251, 252, 253, 254, 255, 256, 257, 258, 259, 260, 261, 262, 263, 264],
      "LargestImagePixelValue": [32006, 31139, 31387, 30559, 29979, 30218, 30187, 29818, 29767, 29775, 29911, 29691, 30044, 29658, 29999, 30171, 30156, 30614, 30371, 30282, 30085, 29989, 29805, 30098, 30179, 30151, 30466, 30240, 30466, 30776, 30833, 30679, 30840, 31011, 30356, 30313, 30673, 30188, 30628, 30449, 30518, 30301, 30317, 30204, 30200, 30294, 30620, 30594, 29886, 30142, 29873, 30092, 30845, 30489, 30736, 30949, 31084, 30951, 30810, 30779, 30614, 30389, 30692, 30550, 30884, 30619, 30106, 30181, 30535, 30349, 30367, 30334, 30521, 29988, 30311, 30690, 30586, 30466, 30400, 30133, 30058, 30195, 30136, 30320, 30171, 30455, 30733, 30461, 30836, 30941, 30552, 30229, 30312, 30572, 30740, 30603, 30379, 30234, 30244, 30564, 30355, 30938, 30969, 30700, 30722, 30402, 30600, 30487, 30560, 30568, 30556, 30769, 30199, 30234, 30118, 30489, 30962, 30897, 30987, 31006, 30778, 30564, 30474, 30498, 30330, 30116, 30311, 30982, 30749, 30636, 30928, 30529, 30597, 30495, 29935, 30484, 30354, 30250, 30355, 30081, 30207, 30256, 29934, 30058, 30121, 29750, 30176, 29663, 30268, 29907, 30140, 30281, 30382, 30613, 30497, 30497, 30481, 30548, 30648, 31051, 30274, 30604, 30665, 30151, 30289, 30184, 30103, 30560, 30505, 30488, 30193, 30093, 30331, 30101, 30542, 30730, 30498, 30652, 30641, 30389, 30331, 30902, 30438, 30706, 30129, 30472, 30329, 30630, 30417, 30433, 30803, 31045, 30522, 31404, 31005, 30407, 30532, 30474, 30128, 30267, 30482, 30310, 30663, 30777, 30476, 30486, 30378, 30373, 30103, 30444, 30216, 30382, 30553, 29949, 30826, 30633, 30591, 30758, 30021, 30384, 30075, 30117, 29947, 30203, 30230, 30231, 30388, 30991, 30654, 31140, 30825, 30458, 30631, 29937, 30151, 30520, 30615, 30534, 30300, 30237, 30007, 29974, 30039, 30147, 30759, 30336, 30860, 30554, 30557, 30373, 30555, 30188, 30681, 30185, 30111, 30050, 30217, 30137, 30063, 29983, 29779, 29941, 29905, 29964],
      "WindowCenter": [9695.0, 9647.0, 9647.0, 9622.0, 9599.0, 9582.0, 9587.0, 9588.0, 9581.0, 9575.0, 9580.0, 9581.0, 9586.0, 9594.0, 9610.0, 9606.0, 9619.0, 9635.0, 9637.0, 9629.0, 9620.0, 9608.0, 9599.0, 9606.0, 9615.0, 9615.0, 9621.0, 9622.0, 9620.0, 9634.0, 9642.0, 9637.0, 9642.0, 9635.0, 9622.0, 9618.0, 9617.0, 9613.0, 9617.0, 9618.0, 9620.0, 9612.0, 9612.0, 9615.0, 9623.0, 9626.0, 9633.0, 9635.0, 9615.0, 9615.0, 9599.0, 9617.0, 9618.0, 9613.0, 9619.0, 9625.0, 9625.0, 9619.0, 9618.0, 9618.0, 9617.0, 9600.0, 9600.0, 9601.0, 9605.0, 9600.0, 9596.0, 9596.0, 9600.0, 9601.0, 9594.0, 9593.0, 9601.0, 9603.0, 9609.0, 9614.0, 9608.0, 9587.0, 9584.0, 9587.0, 9580.0, 9586.0, 9594.0, 9595.0, 9598.0, 9612.0, 9612.0, 9611.0, 9609.0, 9608.0, 9601.0, 9602.0, 9610.0, 9617.0, 9619.0, 9619.0, 9605.0, 9598.0, 9604.0, 9611.0, 9620.0, 9633.0, 9626.0, 9612.0, 9612.0, 9599.0, 9616.0, 9614.0, 9628.0, 9625.0, 9619.0, 9618.0, 9604.0, 9604.0, 9622.0, 9629.0, 9643.0, 9635.0, 9626.0, 9611.0, 9602.0, 9587.0, 9578.0, 9584.0, 9595.0, 9592.0, 9614.0, 9633.0, 9629.0, 9629.0, 9627.0, 9606.0, 9601.0, 9595.0, 9589.0, 9593.0, 9602.0, 9604.0, 9601.0, 9590.0, 9596.0, 9596.0, 9588.0, 9596.0, 9597.0, 9600.0, 9621.0, 9611.0, 9619.0, 9601.0, 9598.0, 9595.0, 9601.0, 9615.0, 9611.0, 9629.0, 9632.0, 9638.0, 9638.0, 9635.0, 9613.0, 9611.0, 9609.0, 9582.0, 9600.0, 9606.0, 9615.0, 9626.0, 9619.0, 9611.0, 9597.0, 9597.0, 9597.0, 9581.0, 9589.0, 9596.0, 9592.0, 9598.0, 9603.0, 9597.0, 9605.0, 9618.0, 9606.0, 9606.0, 9600.0, 9596.0, 9594.0, 9608.0, 9605.0, 9615.0, 9629.0, 9646.0, 9648.0, 9657.0, 9635.0, 9612.0, 9605.0, 9595.0, 9597.0, 9611.0, 9619.0, 9621.0, 9636.0, 9629.0, 9615.0, 9612.0, 9604.0, 9597.0, 9605.0, 9612.0, 9608.0, 9619.0, 9614.0, 9570.0, 9654.0, 9626.0, 9626.0, 9613.0, 9599.0, 9599.0, 9590.0, 9594.0, 9597.0, 9606.0, 9614.0, 9619.0, 9624.0, 9627.0, 9620.0, 9613.0, 9604.0, 9597.0, 9597.0, 9583.0, 9590.0, 9595.0, 9602.0, 9605.0, 9615.0, 9606.0, 9599.0, 9592.0, 9589.0, 9590.0, 9604.0, 9605.0, 9613.0, 9606.0, 9606.0, 9597.0, 9598.0, 9598.0, 9615.0, 9607.0, 9615.0, 9605.0, 9592.0, 9585.0, 9581.0, 9588.0, 9585.0, 9581.0, 9574.0, 9573.0],
      "WindowWidth": [20728.0, 20615.0, 20605.0, 20553.0, 20499.0, 20460.0, 20466.0, 20469.0, 20455.0, 20444.0, 20454.0, 20455.0, 20464.0, 20483.0, 20516.0, 20512.0, 20543.0, 20576.0, 20579.0, 20561.0, 20543.0, 20519.0, 20501.0, 20518.0, 20539.0, 20541.0, 20556.0, 20555.0, 20552.0, 20580.0, 20599.0, 20588.0, 20599.0, 20579.0, 20547.0, 20535.0, 20537.0, 20531.0, 20536.0, 20540.0, 20547.0, 20527.0, 20528.0, 20537.0, 20553.0, 20556.0, 20576.0, 20580.0, 20538.0, 20536.0, 20504.0, 20543.0, 20543.0, 20534.0, 20540.0, 20557.0, 20559.0, 20545.0, 20544.0, 20543.0, 20534.0, 20497.0, 20498.0, 20499.0, 20504.0, 20498.0, 20490.0, 20487.0, 20495.0, 20493.0, 20479.0, 20479.0, 20498.0, 20504.0, 20517.0, 20527.0, 20510.0, 20463.0, 20458.0, 20466.0, 20452.0, 20467.0, 20486.0, 20487.0, 20500.0, 20527.0, 20529.0, 20529.0, 20520.0, 20512.0, 20499.0, 20505.0, 20521.0, 20537.0, 20543.0, 20541.0, 20512.0, 20499.0, 20510.0, 20523.0, 20549.0, 20570.0, 20555.0, 20529.0, 20527.0, 20499.0, 20532.0, 20537.0, 20562.0, 20553.0, 20540.0, 20533.0, 20505.0, 20507.0, 20547.0, 20566.0, 20596.0, 20577.0, 20550.0, 20521.0, 20500.0, 20467.0, 20447.0, 20462.0, 20486.0, 20484.0, 20534.0, 20572.0, 20565.0, 20567.0, 20556.0, 20509.0, 20493.0, 20480.0, 20468.0, 20478.0, 20500.0, 20505.0, 20495.0, 20478.0, 20486.0, 20485.0, 20470.0, 20487.0, 20488.0, 20499.0, 20543.0, 20526.0, 20538.0, 20502.0, 20490.0, 20484.0, 20497.0, 20522.0, 20524.0, 20566.0, 20577.0, 20590.0, 20586.0, 20573.0, 20527.0, 20521.0, 20512.0, 20458.0, 20496.0, 20514.0, 20535.0, 20557.0, 20541.0, 20519.0, 20491.0, 20492.0, 20488.0, 20456.0, 20474.0, 20489.0, 20486.0, 20495.0, 20504.0, 20493.0, 20512.0, 20536.0, 20512.0, 20514.0, 20498.0, 20483.0, 20479.0, 20510.0, 20507.0, 20535.0, 20568.0, 20605.0, 20615.0, 20625.0, 20573.0, 20523.0, 20508.0, 20482.0, 20495.0, 20524.0, 20540.0, 20548.0, 20580.0, 20563.0, 20533.0, 20522.0, 20501.0, 20490.0, 20511.0, 20523.0, 20519.0, 20540.0, 20530.0, 20431.0, 20619.0, 20554.0, 20552.0, 20523.0, 20498.0, 20493.0, 20472.0, 20480.0, 20489.0, 20509.0, 20533.0, 20548.0, 20556.0, 20561.0, 20547.0, 20528.0, 20510.0, 20495.0, 20490.0, 20464.0, 20480.0, 20488.0, 20501.0, 20514.0, 20536.0, 20511.0, 20497.0, 20479.0, 20472.0, 20478.0, 20507.0, 20511.0, 20534.0, 20517.0, 20517.0, 20497.0, 20498.0, 20494.0, 20525.0, 20514.0, 20529.0, 20507.0, 20479.0, 20461.0, 20450.0, 20466.0, 20464.0, 20452.0, 20438.0, 20432.0]
    },
    "slices": {}
  }
}