{
  "AcquisitionMatrixPE": 104,
  "AcquisitionNumber": 1,
  "AcquisitionTime": "10:23:30.445000",
  "BandwidthPerPixelPhaseEncode": 16.578,
  "BaseResolution": 104,
  "BodyPartExamined": "BRAIN",
  "ConsistencyInfo": "N4_VE11C_LATEST_20160120",
  "ConversionSoftware": "dcm2niix",
  "ConversionSoftwareVersion": "v1.0.20190410  GCC6.3.0",
  "DerivedVendorReportedEchoSpacing": 0.000580009,
  "DeviceSerialNumber": "166018",
  "DwellTime": 2.1e-06,
  "EchoTime": 0.037,
  "EchoTrainLength": 104,
  "EffectiveEchoSpacing": 0.000580009,
  "FlipAngle": 68,
  "ImageComments": "Unaliased_MB6_PE3_LB",
  "ImageOrientationPatientDICOM": [0.995256, 0.0256616, 0.0938485, -0.00903293, 0.984795, -0.173486],
  "ImageType": [
    "ORIGINAL",
    "PRIMARY",
    "M",
    "MB",
    "ND",
    "MOSAIC"
],
  "ImagingFrequency": 123.191,
  "InPlanePhaseEncodingDirectionDICOM": "COL",
  "InstitutionAddress": "Washington_Place_6_NYC_NYC_US_10003",
  "InstitutionName": "NYU_Center_for_Brain_Imaging",
  "InstitutionalDepartmentName": "Department",
  "MRAcquisitionType": "2D",
  "MagneticFieldStrength": 3,
  "Manufacturer": "Siemens",
  "ManufacturersModelName": "Prisma",
  "Modality": "MR",
  "MultibandAccelerationFactor": 6,
  "PartialFourier": 1,
  "PatientPosition": "HFS",
  "PercentPhaseFOV": 100,
  "PhaseEncodingDirection": "j",
  "PhaseEncodingSteps": 104,
  "PhaseResolution": 1,
  "PixelBandwidth": 2290,
  "ProcedureStepDescription": "Investigators_Winawer",
  "ProtocolName": "task-sfprescaled_cmrr_mbepi_s6_2mm_66sl_PA_TR1.0",
  "PulseSequenceDetails": "%CustomerSeq%_cmrr_mbep2d_bold",
  "ReceiveCoilActiveElements": "HC1-7",
  "ReceiveCoilName": "HeadNeck_64",
  "ReconMatrixPE": 104,
  "RepetitionTime": 1,
  "SAR": 0.0742954,
  "ScanOptions": "FS",
  "ScanningSequence": "EP",
  "SequenceName": "epfid2d1_104",
  "SequenceVariant": "SK_SS",
  "SeriesDescription": "task-sfprescaled_cmrr_mbepi_s6_2mm_66sl_PA_TR1.0",
  "SeriesNumber": 12,
  "ShimSetting": [281, -12603, -8456, 398, -20, -152, -34, 10],
  "SliceThickness": 2,
  "SliceTiming": [0, 0.535, 0.09, 0.6225, 0.1775, 0.7125, 0.2675, 0.8025, 0.3575, 0.89, 0.445, 0, 0.535, 0.09, 0.6225, 0.1775, 0.7125, 0.2675, 0.8025, 0.3575, 0.89, 0.445, 0, 0.535, 0.09, 0.6225, 0.1775, 0.7125, 0.2675, 0.8025, 0.3575, 0.89, 0.445, 0, 0.535, 0.09, 0.6225, 0.1775, 0.7125, 0.2675, 0.8025, 0.3575, 0.89, 0.445, 0, 0.535, 0.09, 0.6225, 0.1775, 0.7125, 0.2675, 0.8025, 0.3575, 0.89, 0.445, 0, 0.535, 0.09, 0.6225, 0.1775, 0.7125, 0.2675, 0.8025, 0.3575, 0.89, 0.445],
  "SoftwareVersions": "syngo_MR_E11",
  "SpacingBetweenSlices": 2,
  "StationName": "AWP166018",
  "TaskName": "sfprescaled",
  "TotalReadoutTime": 0.0597409,
  "TxRefAmp": 214.622,
  "WipMemBlock": "2f353ea8-e44f-4e77-99f6-ac4e68b1d39d||Sequence: R016 ve11c/master r/8780670; Nov 27 2017 15:05:12 by eja",
  "dcmmeta_affine": [
    [-1.990511417388916, -0.01806586980819702, 0.19374698400497437, 105.07337951660156],
    [-0.051323290914297104, 1.9695899486541748, -0.3436298370361328, -70.17562866210938],
    [0.18769706785678864, 0.34697142243385315, 1.9607092142105103, -60.93413162231445],
    [0.0, 0.0, 0.0, 1.0]
],
  "dcmmeta_reorient_transform": [
    [0.0, -1.0, 0.0, 103.0],
    [1.0, 0.0, 0.0, 0.0],
    [0.0, 0.0, 1.0, 0.0],
    [0.0, 0.0, 0.0, 1.0]
],
  "dcmmeta_shape": [104, 104, 66, 264],
  "dcmmeta_slice_dim": 2,
  "dcmmeta_version": 0.6,
  "global": {
    "const": {
      "AccessionNumber": "k5qy39xa",
      "AcquisitionMatrix": [104, 0, 0, 104],
      "AngioFlag": "N",
      "BitsAllocated": 16,
      "BitsStored": 16,
      "BodyPartExamined": "BRAIN",
      "Columns": 936,
      "EchoNumbers": 1,
      "EchoTime": 37.0,
      "EchoTrainLength": 104,
      "FlipAngle": 68.0,
      "HighBit": 15,
      "ImageOrientationPatient": [0.99525571234847, 0.02566164565613, 0.09384853211406, -0.0090329349623, 0.98479496068576, -0.1734857097685],
      "ImagePositionPatient": [-923.74994340339, -973.3920321261, 41.062058135679],
      "ImageType": [
        "ORIGINAL",
        "PRIMARY",
        "M",
        "MB",
        "ND",
        "MOSAIC"
],
      "ImagedNucleus": "1H",
      "ImagingFrequency": 123.19076,
      "InPlanePhaseEncodingDirection": "COL",
      "MRAcquisitionType": "2D",
      "MagneticFieldStrength": 3.0,
      "Manufacturer": "SIEMENS",
      "ManufacturerModelName": "Prisma",
      "Modality": "MR",
      "NumberOfAverages": 1.0,
      "NumberOfPhaseEncodingSteps": 104,
      "PercentPhaseFieldOfView": 100.0,
      "PercentSampling": 100.0,
      "PerformedProcedureStepStartTime": "095915.033000",
      "PhotometricInterpretation": "MONOCHROME2",
      "PixelBandwidth": 2290.0,
      "PixelRepresentation": 0,
      "PixelSpacing": [2.0, 2.0],
      "ProtocolName": "task-sfprescaled_cmrr_mbepi_s6_2mm_66sl_PA_TR1.0",
      "RepetitionTime": 1000.0,
      "Rows": 936,
      "SAR": 0.07429538247977,
      "SamplesPerPixel": 1,
      "ScanOptions": "FS",
      "ScanningSequence": "EP",
      "SequenceName": "epfid2d1_104",
      "SequenceVariant": [
        "SK",
        "SS"
],
      "SeriesDescription": "task-sfprescaled_cmrr_mbepi_s6_2mm_66sl_PA_TR1.0",
      "SeriesNumber": 12,
      "SeriesTime": "102459.196000",
      "SliceLocation": -37.501011027782,
      "SliceThickness": 2.0,
      "SmallestImagePixelValue": 0,
      "SoftwareVersions": "syngo MR E11",
      "SpacingBetweenSlices": 1.999999987338,
      "SpecificCharacterSet": "ISO_IR 100",
      "StudyID": "1",
      "StudyTime": "095914.966000",
      "TransmitCoilName": "Body",
      "VariableFlipAngleFlag": "N",
      "WindowCenterWidthExplanation": "Algo1",
      "dBdt": 0.0},
    "slices": {}
  },
  "time": {
    "samples": {
      "AcquisitionNumber": [1, 2, 3, 4, 5, 6, 7, 8, 9, 10, 11, 12, 13, 14, 15, 16, 17, 18, 19, 20, 21, 22, 23, 24, 25, 26, 27, 28, 29, 30, 31, 32, 33, 34, 35, 36, 37, 38, 39, 40, 41, 42, 43, 44, 45, 46, 47, 48, 49, 50, 51, 52, 53, 54, 55, 56, 57, 58, 59, 60, 61, 62, 63, 64, 65, 66, 67, 68, 69, 70, 71, 72, 73, 74, 75, 76, 77, 78, 79, 80, 81, 82, 83, 84, 85, 86, 87, 88, 89, 90, 91, 92, 93, 94, 95, 96, 97, 98, 99, 100, 101, 102, 103, 104, 105, 106, 107, 108, 109, 110, 111, 112, 113, 114, 115, 116, 117, 118, 119, 120, 121, 122, 123, 124, 125, 126, 127, 128, 129, 130, 131, 132, 133, 134, 135, 136, 137, 138, 139, 140, 141, 142, 143, 144, 145, 146, 147, 148, 149, 150, 151, 152, 153, 154, 155, 156, 157, 158, 159, 160, 161, 162, 163, 164, 165, 166, 167, 168, 169, 170, 171, 172, 173, 174, 175, 176, 177, 178, 179, 180, 181, 182, 183, 184, 185, 186, 187, 188, 189, 190, 191, 192, 193, 194, 195, 196, 197, 198, 199, 200, 201, 202, 203, 204, 205, 206, 207, 208, 209, 210, 211, 212, 213, 214, 215, 216, 217, 218, 219, 220, 221, 222, 223, 224, 225, 226, 227, 228, 229, 230, 231, 232, 233, 234, 235, 236, 237, 238, 239, 240, 241, 242, 243, 244, 245, 246, 247, 248, 249, 250, 251, 252, 253, 254, 255, 256, 257, 258, 259, 260, 261, 262, 263, 264],
      "AcquisitionTime": ["102330.445000", "102331.445000", "102332.445000", "102333.445000", "102334.445000", "102335.445000", "102336.445000", "102337.445000", "102338.445000", "102339.445000", "102340.445000", "102341.445000", "102342.445000", "102343.445000", "102344.445000", "102345.445000", "102346.445000", "102347.445000", "102348.445000", "102349.445000", "102350.445000", "102351.445000", "102352.445000", "102353.445000", "102354.445000", "102355.445000", "102356.445000", "102357.445000", "102358.445000", "102359.445000", "102400.445000", "102401.445000", "102402.445000", "102403.445000", "102404.445000", "102405.445000", "102406.445000", "102407.445000", "102408.445000", "102409.445000", "102410.445000", "102411.445000", "102412.445000", "102413.445000", "102414.445000", "102415.445000", "102416.445000", "102417.445000", "102418.445000", "102419.445000", "102420.445000", "102421.445000", "102422.445000", "102423.445000", "102424.445000", "102425.445000", "102426.445000", "102427.445000", "102428.445000", "102429.445000", "102430.445000", "102431.445000", "102432.445000", "102433.445000", "102434.445000", "102435.445000", "102436.445000", "102437.445000", "102438.445000", "102439.445000", "102440.445000", "102441.445000", "102442.445000", "102443.445000", "102444.445000", "102445.445000", "102446.445000", "102447.445000", "102448.445000", "102449.445000", "102450.445000", "102451.445000", "102452.445000", "102453.445000", "102454.445000", "102455.445000", "102456.445000", "102457.445000", "102458.445000", "102459.445000", "102500.445000", "102501.445000", "102502.445000", "102503.445000", "102504.445000", "102505.445000", "102506.445000", "102507.445000", "102508.445000", "102509.445000", "102510.445000", "102511.445000", "102512.445000", "102513.445000", "102514.445000", "102515.445000", "102516.445000", "102517.445000", "102518.445000", "102519.445000", "102520.445000", "102521.445000", "102522.445000", "102523.445000", "102524.445000", "102525.445000", "102526.445000", "102527.445000", "102528.445000", "102529.445000", "102530.445000", "102531.445000", "102532.445000", "102533.445000", "102534.445000", "102535.445000", "102536.445000", "102537.445000", "102538.445000", "102539.445000", "102540.445000", "102541.445000", "102542.445000", "102543.445000", "102544.445000", "102545.445000", "102546.445000", "102547.445000", "102548.445000", "102549.445000", "102550.445000", "102551.445000", "102552.445000", "102553.445000", "102554.445000", "102555.445000", "102556.445000", "102557.445000", "102558.445000", "102559.445000", "102600.445000", "102601.445000", "102602.445000", "102603.445000", "102604.445000", "102605.445000", "102606.445000", "102607.445000", "102608.445000", "102609.445000", "102610.445000", "102611.445000", "102612.445000", "102613.445000", "102614.445000", "102615.445000", "102616.445000", "102617.445000", "102618.445000", "102619.445000", "102620.445000", "102621.445000", "102622.445000", "102623.445000", "102624.445000", "102625.445000", "102626.445000", "102627.445000", "102628.445000", "102629.445000", "102630.445000", "102631.445000", "102632.445000", "102633.445000", "102634.445000", "102635.445000", "102636.445000", "102637.445000", "102638.445000", "102639.445000", "102640.445000", "102641.445000", "102642.445000", "102643.445000", "102644.445000", "102645.445000", "102646.445000", "102647.445000", "102648.445000", "102649.445000", "102650.445000", "102651.445000", "102652.445000", "102653.445000", "102654.445000", "102655.445000", "102656.445000", "102657.445000", "102658.445000", "102659.445000", "102700.445000", "102701.445000", "102702.445000", "102703.445000", "102704.445000", "102705.445000", "102706.445000", "102707.445000", "102708.445000", "102709.445000", "102710.445000", "102711.445000", "102712.445000", "102713.445000", "102714.445000", "102715.445000", "102716.445000", "102717.445000", "102718.445000", "102719.445000", "102720.445000", "102721.445000", "102722.445000", "102723.445000", "102724.445000", "102725.445000", "102726.445000", "102727.445000", "102728.445000", "102729.445000", "102730.445000", "102731.445000", "102732.445000", "102733.445000", "102734.445000", "102735.445000", "102736.445000", "102737.445000", "102738.445000", "102739.445000", "102740.445000", "102741.445000", "102742.445000", "102743.445000", "102744.445000", "102745.445000", "102746.445000", "102747.445000", "102748.445000", "102749.445000", "102750.445000", "102751.445000", "102752.445000", "102753.445000"],
      "ContentTime": ["102459.198000", "102459.202000", "102459.205000", "102459.208000", "102459.211000", "102459.213000", "102459.216000", "102459.219000", "102459.222000", "102459.230000", "102459.233000", "102459.236000", "102459.239000", "102459.242000", "102459.245000", "102459.247000", "102459.250000", "102459.253000", "102459.256000", "102459.259000", "102459.262000", "102459.265000", "102459.268000", "102459.270000", "102459.273000", "102459.276000", "102459.279000", "102459.282000", "102459.285000", "102459.288000", "102459.291000", "102459.294000", "102459.296000", "102459.299000", "102459.302000", "102459.306000", "102459.309000", "102459.312000", "102459.315000", "102459.318000", "102459.321000", "102459.324000", "102459.327000", "102459.329000", "102459.332000", "102459.335000", "102459.338000", "102519.150000", "102519.153000", "102519.156000", "102519.159000", "102519.162000", "102519.164000", "102519.167000", "102519.170000", "102519.173000", "102519.176000", "102519.179000", "102519.182000", "102519.185000", "102519.187000", "102519.190000", "102519.193000", "102519.196000", "102519.199000", "102519.202000", "102519.205000", "102519.208000", "102519.211000", "102519.213000", "102519.216000", "102519.219000", "102519.222000", "102519.225000", "102519.228000", "102539.150000", "102539.153000", "102539.156000", "102539.158000", "102539.161000", "102539.164000", "102539.167000", "102539.170000", "102539.173000", "102539.176000", "102539.179000", "102539.182000", "102539.185000", "102539.188000", "102539.191000", "102539.194000", "102539.196000", "102539.199000", "102539.202000", "102539.205000", "102539.208000", "102539.211000", "102539.213000", "102539.216000", "102539.219000", "102539.222000", "102539.225000", "102539.228000", "102559.150000", "102559.153000", "102559.156000", "102559.159000", "102559.162000", "102559.165000", "102559.167000", "102559.170000", "102559.185000", "102559.188000", "102559.191000", "102559.194000", "102559.197000", "102559.207000", "102559.210000", "102559.213000", "102559.216000", "102559.219000", "102559.222000", "102559.225000", "102559.228000", "102559.231000", "102559.233000", "102559.236000", "102559.239000", "102559.242000", "102559.245000", "102559.248000", "102559.251000", "102619.150000", "102619.153000", "102619.156000", "102619.159000", "102619.161000", "102619.164000", "102619.167000", "102619.170000", "102619.173000", "102619.176000", "102619.179000", "102619.182000", "102619.185000", "102619.187000", "102619.190000", "102619.193000", "102619.196000", "102619.199000", "102619.202000", "102619.205000", "102619.208000", "102619.211000", "102619.213000", "102619.216000", "102619.219000", "102619.222000", "102619.225000", "102619.228000", "102639.150000", "102639.153000", "102639.156000", "102639.159000", "102639.161000", "102639.164000", "102639.167000", "102639.170000", "102639.173000", "102639.176000", "102639.179000", "102639.182000", "102639.185000", "102639.188000", "102639.190000", "102639.193000", "102639.196000", "102639.199000", "102639.202000", "102639.205000", "102639.208000", "102639.211000", "102639.213000", "102639.216000", "102639.219000", "102639.222000", "102639.225000", "102659.151000", "102659.154000", "102659.157000", "102659.160000", "102659.163000", "102659.166000", "102659.168000", "102659.171000", "102659.174000", "102659.177000", "102659.180000", "102659.183000", "102659.186000", "102659.189000", "102659.192000", "102659.195000", "102659.198000", "102659.200000", "102659.203000", "102659.206000", "102719.150000", "102719.153000", "102719.156000", "102719.159000", "102719.162000", "102719.164000", "102719.167000", "102719.170000", "102719.173000", "102719.176000", "102719.179000", "102719.182000", "102719.185000", "102719.188000", "102719.191000", "102719.193000", "102719.196000", "102719.199000", "102719.202000", "102719.205000", "102739.150000", "102739.153000", "102739.156000", "102739.159000", "102739.162000", "102739.164000", "102739.167000", "102739.170000", "102739.173000", "102739.176000", "102739.179000", "102739.182000", "102739.185000", "102739.188000", "102739.191000", "102739.194000", "102739.197000", "102739.199000", "102739.202000", "102739.205000", "102755.492000", "102755.495000", "102755.498000", "102755.501000", "102755.504000", "102755.507000", "102755.510000", "102755.523000", "102755.526000", "102755.528000", "102755.531000", "102755.534000", "102755.537000", "102755.540000", "102755.543000", "102755.546000", "102755.549000"],
      "InstanceCreationTime": ["102459.198000", "102459.202000", "102459.205000", "102459.208000", "102459.211000", "102459.213000", "102459.216000", "102459.219000", "102459.222000", "102459.230000", "102459.233000", "102459.236000", "102459.239000", "102459.242000", "102459.245000", "102459.247000", "102459.250000", "102459.253000", "102459.256000", "102459.259000", "102459.262000", "102459.265000", "102459.268000", "102459.270000", "102459.273000", "102459.276000", "102459.279000", "102459.282000", "102459.285000", "102459.288000", "102459.291000", "102459.294000", "102459.296000", "102459.299000", "102459.302000", "102459.306000", "102459.309000", "102459.312000", "102459.315000", "102459.318000", "102459.321000", "102459.324000", "102459.327000", "102459.329000", "102459.332000", "102459.335000", "102459.338000", "102519.150000", "102519.153000", "102519.156000", "102519.159000", "102519.162000", "102519.164000", "102519.167000", "102519.170000", "102519.173000", "102519.176000", "102519.179000", "102519.182000", "102519.185000", "102519.187000", "102519.190000", "102519.193000", "102519.196000", "102519.199000", "102519.202000", "102519.205000", "102519.208000", "102519.211000", "102519.213000", "102519.216000", "102519.219000", "102519.222000", "102519.225000", "102519.228000", "102539.150000", "102539.153000", "102539.156000", "102539.158000", "102539.161000", "102539.164000", "102539.167000", "102539.170000", "102539.173000", "102539.176000", "102539.179000", "102539.182000", "102539.185000", "102539.188000", "102539.191000", "102539.194000", "102539.196000", "102539.199000", "102539.202000", "102539.205000", "102539.208000", "102539.211000", "102539.213000", "102539.216000", "102539.219000", "102539.222000", "102539.225000", "102539.228000", "102559.150000", "102559.153000", "102559.156000", "102559.159000", "102559.162000", "102559.165000", "102559.167000", "102559.170000", "102559.185000", "102559.188000", "102559.191000", "102559.194000", "102559.197000", "102559.207000", "102559.210000", "102559.213000", "102559.216000", "102559.219000", "102559.222000", "102559.225000", "102559.228000", "102559.231000", "102559.233000", "102559.236000", "102559.239000", "102559.242000", "102559.245000", "102559.248000", "102559.251000", "102619.150000", "102619.153000", "102619.156000", "102619.159000", "102619.161000", "102619.164000", "102619.167000", "102619.170000", "102619.173000", "102619.176000", "102619.179000", "102619.182000", "102619.185000", "102619.187000", "102619.190000", "102619.193000", "102619.196000", "102619.199000", "102619.202000", "102619.205000", "102619.208000", "102619.211000", "102619.213000", "102619.216000", "102619.219000", "102619.222000", "102619.225000", "102619.228000", "102639.150000", "102639.153000", "102639.156000", "102639.159000", "102639.161000", "102639.164000", "102639.167000", "102639.170000", "102639.173000", "102639.176000", "102639.179000", "102639.182000", "102639.185000", "102639.188000", "102639.190000", "102639.193000", "102639.196000", "102639.199000", "102639.202000", "102639.205000", "102639.208000", "102639.211000", "102639.213000", "102639.216000", "102639.219000", "102639.222000", "102639.225000", "102659.151000", "102659.154000", "102659.157000", "102659.160000", "102659.163000", "102659.166000", "102659.168000", "102659.171000", "102659.174000", "102659.177000", "102659.180000", "102659.183000", "102659.186000", "102659.189000", "102659.192000", "102659.195000", "102659.198000", "102659.200000", "102659.203000", "102659.206000", "102719.150000", "102719.153000", "102719.156000", "102719.159000", "102719.162000", "102719.164000", "102719.167000", "102719.170000", "102719.173000", "102719.176000", "102719.179000", "102719.182000", "102719.185000", "102719.188000", "102719.191000", "102719.193000", "102719.196000", "102719.199000", "102719.202000", "102719.205000", "102739.150000", "102739.153000", "102739.156000", "102739.159000", "102739.162000", "102739.164000", "102739.167000", "102739.170000", "102739.173000", "102739.176000", "102739.179000", "102739.182000", "102739.185000", "102739.188000", "102739.191000", "102739.194000", "102739.197000", "102739.199000", "102739.202000", "102739.205000", "102755.492000", "102755.495000", "102755.498000", "102755.501000", "102755.504000", "102755.507000", "102755.510000", "102755.523000", "102755.526000", "102755.528000", "102755.531000", "102755.534000", "102755.537000", "102755.540000", "102755.543000", "102755.546000", "102755.549000"],
      "InstanceNumber": [1, 2, 3, 4, 5, 6, 7, 8, 9, 10, 11, 12, 13, 14, 15, 16, 17, 18, 19, 20, 21, 22, 23, 24, 25, 26, 27, 28, 29, 30, 31, 32, 33, 34, 35, 36, 37, 38, 39, 40, 41, 42, 43, 44, 45, 46, 47, 48, 49, 50, 51, 52, 53, 54, 55, 56, 57, 58, 59, 60, 61, 62, 63, 64, 65, 66, 67, 68, 69, 70, 71, 72, 73, 74, 75, 76, 77, 78, 79, 80, 81, 82, 83, 84, 85, 86, 87, 88, 89, 90, 91, 92, 93, 94, 95, 96, 97, 98, 99, 100, 101, 102, 103, 104, 105, 106, 107, 108, 109, 110, 111, 112, 113, 114, 115, 116, 117, 118, 119, 120, 121, 122, 123, 124, 125, 126, 127, 128, 129, 130, 131, 132, 133, 134, 135, 136, 137, 138, 139, 140, 141, 142, 143, 144, 145, 146, 147, 148, 149, 150, 151, 152, 153, 154, 155, 156, 157, 158, 159, 160, 161, 162, 163, 164, 165, 166, 167, 168, 169, 170, 171, 172, 173, 174, 175, 176, 177, 178, 179, 180, 181, 182, 183, 184, 185, 186, 187, 188, 189, 190, 191, 192, 193, 194, 195, 196, 197, 198, 199, 200, 201, 202, 203, 204, 205, 206, 207, 208, 209, 210, 211, 212, 213, 214, 215, 216, 217, 218, 219, 220, 221, 222, 223, 224, 225, 226, 227, 228, 229, 230, 231, 232, 233, 234, 235, 236, 237, 238, 239, 240, 241, 242, 243, 244, 245, 246, 247, 248, 249, 250, 251, 252, 253, 254, 255, 256, 257, 258, 259, 260, 261, 262, 263, 264],
      "LargestImagePixelValue": [46743, 45595, 44694, 43640, 43591, 43285, 42668, 42945, 42871, 43352, 43261, 43102, 43326, 43366, 43239, 43311, 42943, 42574, 43096, 42794, 42759, 43056, 42842, 43082, 43021, 42937, 43232, 42999, 42823, 42885, 42455, 43203, 43221, 42950, 43146, 43366, 42907, 42863, 43063, 42800, 42549, 42866, 43077, 42943, 42727, 43244, 43226, 42647, 42675, 43145, 43165, 42639, 42674, 43060, 43387, 42784, 42764, 43166, 42609, 43173, 43078, 43083, 43017, 42572, 42944, 43400, 43116, 43010, 42874, 43081, 42843, 43693, 42938, 43059, 43084, 43420, 42685, 42923, 43037, 43182, 42936, 43761, 43189, 42366, 43176, 43145, 42733, 42843, 42868, 43122, 43153, 43139, 42826, 43513, 43190, 42700, 43403, 43439, 43876, 42895, 43291, 43155, 43556, 43237, 43245, 43089, 43534, 42984, 43269, 43277, 43213, 43018, 43193, 43420, 43319, 43129, 42929, 42817, 43205, 43133, 43251, 43408, 42990, 42734, 43115, 43497, 43134, 43049, 43083, 42914, 43546, 43213, 43530, 43510, 43071, 42851, 42792, 43396, 43468, 43587, 42827, 43340, 42940, 43078, 43249, 42937, 43072, 43048, 43238, 43652, 43205, 43174, 43014, 43220, 43086, 42635, 43077, 42778, 42755, 42853, 42934, 42792, 42605, 43546, 43229, 42921, 42714, 43250, 43274, 43533, 43062, 43318, 42949, 42830, 43447, 42995, 43036, 43345, 43266, 43153, 43039, 42835, 42816, 43012, 43104, 42996, 42691, 42963, 42951, 42864, 43080, 43391, 42657, 42579, 42617, 42645, 42848, 42694, 42900, 42887, 43125, 42999, 42539, 43142, 42942, 43189, 43079, 43464, 42907, 43010, 43078, 42900, 42833, 43029, 43128, 43114, 42876, 43274, 42783, 42640, 42759, 42926, 43566, 43028, 43092, 43286, 43186, 43012, 43248, 43101, 43495, 43082, 43067, 43060, 42748, 42212, 43083, 43238, 42757, 42724, 42788, 43149, 42766, 42875, 43066, 43028, 42986, 42863, 43014, 42957, 43251, 42567, 43013, 43257, 43249, 42847, 42717, 42939, 43267, 43331, 43192, 42935, 43187, 42997],
      "WindowCenter": [10642.0, 10608.0, 10584.0, 10564.0, 10563.0, 10565.0, 10569.0, 10575.0, 10573.0, 10557.0, 10535.0, 10516.0, 10504.0, 10500.0, 10492.0, 10499.0, 10510.0, 10521.0, 10533.0, 10535.0, 10536.0, 10534.0, 10527.0, 10524.0, 10524.0, 10533.0, 10540.0, 10540.0, 10539.0, 10538.0, 10534.0, 10538.0, 10532.0, 10534.0, 10539.0, 10547.0, 10550.0, 10567.0, 10589.0, 10600.0, 10599.0, 10595.0, 10578.0, 10561.0, 10539.0, 10533.0, 10531.0, 10534.0, 10550.0, 10570.0, 10569.0, 10571.0, 10566.0, 10569.0, 10566.0, 10569.0, 10577.0, 10584.0, 10579.0, 10580.0, 10567.0, 10552.0, 10536.0, 10529.0, 10535.0, 10545.0, 10539.0, 10534.0, 10533.0, 10533.0, 10528.0, 10544.0, 10535.0, 10546.0, 10548.0, 10554.0, 10553.0, 10566.0, 10568.0, 10577.0, 10579.0, 10583.0, 10571.0, 10557.0, 10556.0, 10542.0, 10534.0, 10534.0, 10535.0, 10548.0, 10573.0, 10600.0, 10612.0, 10609.0, 10590.0, 10563.0, 10556.0, 10544.0, 10533.0, 10528.0, 10534.0, 10540.0, 10548.0, 10550.0, 10553.0, 10554.0, 10557.0, 10552.0, 10552.0, 10551.0, 10550.0, 10552.0, 10558.0, 10564.0, 10573.0, 10583.0, 10586.0, 10595.0, 10600.0, 10605.0, 10610.0, 10613.0, 10603.0, 10600.0, 10598.0, 10589.0, 10581.0, 10581.0, 10573.0, 10572.0, 10577.0, 10578.0, 10580.0, 10572.0, 10569.0, 10557.0, 10554.0, 10550.0, 10543.0, 10542.0, 10536.0, 10537.0, 10543.0, 10545.0, 10553.0, 10554.0, 10553.0, 10559.0, 10554.0, 10559.0, 10562.0, 10571.0, 10573.0, 10572.0, 10565.0, 10552.0, 10547.0, 10538.0, 10536.0, 10529.0, 10534.0, 10537.0, 10551.0, 10572.0, 10577.0, 10579.0, 10574.0, 10570.0, 10562.0, 10561.0, 10555.0, 10553.0, 10560.0, 10570.0, 10582.0, 10574.0, 10579.0, 10579.0, 10570.0, 10559.0, 10551.0, 10546.0, 10544.0, 10544.0, 10550.0, 10553.0, 10555.0, 10554.0, 10555.0, 10560.0, 10560.0, 10559.0, 10554.0, 10548.0, 10548.0, 10554.0, 10562.0, 10559.0, 10569.0, 10564.0, 10562.0, 10543.0, 10533.0, 10528.0, 10521.0, 10525.0, 10526.0, 10541.0, 10552.0, 10560.0, 10570.0, 10575.0, 10577.0, 10576.0, 10566.0, 10550.0, 10536.0, 10529.0, 10521.0, 10521.0, 10522.0, 10535.0, 10541.0, 10537.0, 10535.0, 10521.0, 10512.0, 10510.0, 10509.0, 10517.0, 10523.0, 10534.0, 10542.0, 10549.0, 10545.0, 10538.0, 10544.0, 10543.0, 10545.0, 10561.0, 10568.0, 10576.0, 10572.0, 10570.0, 10567.0, 10556.0, 10549.0, 10552.0, 10552.0, 10558.0, 10562.0, 10565.0, 10572.0, 10579.0, 10573.0, 10567.0, 10559.0, 10549.0, 10540.0, 10537.0, 10535.0, 10532.0, 10535.0, 10530.0],
      "WindowWidth": [22891.0, 22792.0, 22725.0, 22674.0, 22668.0, 22674.0, 22688.0, 22700.0, 22692.0, 22652.0, 22596.0, 22549.0, 22519.0, 22506.0, 22489.0, 22509.0, 22538.0, 22568.0, 22595.0, 22601.0, 22601.0, 22595.0, 22577.0, 22568.0, 22570.0, 22592.0, 22608.0, 22609.0, 22606.0, 22606.0, 22597.0, 22604.0, 22592.0, 22598.0, 22609.0, 22627.0, 22639.0, 22681.0, 22736.0, 22765.0, 22765.0, 22753.0, 22710.0, 22664.0, 22612.0, 22593.0, 22589.0, 22601.0, 22640.0, 22688.0, 22692.0, 22697.0, 22687.0, 22689.0, 22680.0, 22686.0, 22708.0, 22722.0, 22710.0, 22709.0, 22676.0, 22637.0, 22600.0, 22583.0, 22597.0, 22619.0, 22607.0, 22597.0, 22596.0, 22594.0, 22583.0, 22616.0, 22602.0, 22625.0, 22629.0, 22643.0, 22645.0, 22676.0, 22680.0, 22702.0, 22708.0, 22714.0, 22687.0, 22655.0, 22647.0, 22614.0, 22595.0, 22593.0, 22597.0, 22629.0, 22693.0, 22762.0, 22793.0, 22783.0, 22736.0, 22673.0, 22647.0, 22615.0, 22588.0, 22580.0, 22593.0, 22608.0, 22627.0, 22635.0, 22641.0, 22644.0, 22649.0, 22636.0, 22637.0, 22633.0, 22631.0, 22637.0, 22652.0, 22666.0, 22689.0, 22715.0, 22723.0, 22746.0, 22759.0, 22771.0, 22781.0, 22789.0, 22768.0, 22759.0, 22750.0, 22727.0, 22710.0, 22707.0, 22690.0, 22686.0, 22698.0, 22702.0, 22704.0, 22686.0, 22676.0, 22650.0, 22639.0, 22628.0, 22613.0, 22609.0, 22599.0, 22602.0, 22615.0, 22621.0, 22639.0, 22643.0, 22643.0, 22653.0, 22644.0, 22653.0, 22663.0, 22688.0, 22693.0, 22689.0, 22671.0, 22641.0, 22625.0, 22603.0, 22597.0, 22582.0, 22593.0, 22603.0, 22639.0, 22686.0, 22702.0, 22710.0, 22697.0, 22686.0, 22667.0, 22661.0, 22646.0, 22643.0, 22662.0, 22687.0, 22714.0, 22699.0, 22708.0, 22707.0, 22684.0, 22658.0, 22636.0, 22624.0, 22619.0, 22621.0, 22635.0, 22642.0, 22647.0, 22645.0, 22648.0, 22659.0, 22659.0, 22657.0, 22643.0, 22633.0, 22633.0, 22649.0, 22666.0, 22663.0, 22684.0, 22672.0, 22664.0, 22618.0, 22594.0, 22579.0, 22563.0, 22569.0, 22573.0, 22611.0, 22638.0, 22659.0, 22685.0, 22698.0, 22703.0, 22699.0, 22673.0, 22634.0, 22599.0, 22579.0, 22562.0, 22562.0, 22565.0, 22595.0, 22610.0, 22602.0, 22594.0, 22560.0, 22537.0, 22531.0, 22529.0, 22548.0, 22566.0, 22595.0, 22613.0, 22628.0, 22620.0, 22606.0, 22615.0, 22613.0, 22621.0, 22658.0, 22679.0, 22698.0, 22690.0, 22682.0, 22672.0, 22647.0, 22632.0, 22637.0, 22639.0, 22653.0, 22665.0, 22673.0, 22690.0, 22706.0, 22691.0, 22677.0, 22658.0, 22631.0, 22610.0, 22599.0, 22594.0, 22588.0, 22594.0, 22584.0]
    },
    "slices": {}
  },
  "NumberOfVolumes": 264
}