{
  "AcquisitionMatrixPE": 104,
  "AcquisitionNumber": 1,
  "AcquisitionTime": "16:47:25.440000",
  "BandwidthPerPixelPhaseEncode": 16.578,
  "BaseResolution": 104,
  "BodyPartExamined": "BRAIN",
  "ConsistencyInfo": "N4_VE11C_LATEST_20160120",
  "ConversionSoftware": "dcm2niix",
  "ConversionSoftwareVersion": "v1.0.20190410  GCC6.3.0",
  "DerivedVendorReportedEchoSpacing": 0.000580009,
  "DeviceSerialNumber": "166018",
  "DwellTime": 2.1e-06,
  "EchoTime": 0.037,
  "EchoTrainLength": 104,
  "EffectiveEchoSpacing": 0.000580009,
  "FlipAngle": 68,
  "ImageComments": "Unaliased_MB6_PE3_LB",
  "ImageOrientationPatientDICOM": [0.997147, 0.0640549, 0.0399402, -0.0571459, 0.986256, -0.155025],
  "ImageType": [
    "ORIGINAL",
    "PRIMARY",
    "M",
    "MB",
    "ND",
    "MOSAIC"
],
  "ImagingFrequency": 123.191,
  "InPlanePhaseEncodingDirectionDICOM": "COL",
  "InstitutionAddress": "Washington_Place_6_NYC_NYC_US_10003",
  "InstitutionName": "NYU_Center_for_Brain_Imaging",
  "InstitutionalDepartmentName": "Department",
  "MRAcquisitionType": "2D",
  "MagneticFieldStrength": 3,
  "Manufacturer": "Siemens",
  "ManufacturersModelName": "Prisma",
  "Modality": "MR",
  "MultibandAccelerationFactor": 6,
  "PartialFourier": 1,
  "PatientPosition": "HFS",
  "PercentPhaseFOV": 100,
  "PhaseEncodingDirection": "j",
  "PhaseEncodingSteps": 104,
  "PhaseResolution": 1,
  "PixelBandwidth": 2290,
  "ProcedureStepDescription": "Investigators_Winawer",
  "ProtocolName": "task-sfprescaled_cmrr_mbepi_s6_2mm_66sl_PA_TR1.0",
  "PulseSequenceDetails": "%CustomerSeq%_cmrr_mbep2d_bold",
  "ReceiveCoilActiveElements": "HC1-7",
  "ReceiveCoilName": "HeadNeck_64",
  "ReconMatrixPE": 104,
  "RepetitionTime": 1,
  "SAR": 0.0664708,
  "ScanOptions": "FS",
  "ScanningSequence": "EP",
  "SequenceName": "epfid2d1_104",
  "SequenceVariant": "SK_SS",
  "SeriesDescription": "task-sfprescaled_cmrr_mbepi_s6_2mm_66sl_PA_TR1.0",
  "SeriesNumber": 18,
  "ShimSetting": [264, -12600, -8425, 335, -5, -74, 39, 12],
  "SliceThickness": 2,
  "SliceTiming": [0, 0.535, 0.0875, 0.6225, 0.1775, 0.7125, 0.2675, 0.8, 0.355, 0.89, 0.445, 0, 0.535, 0.0875, 0.6225, 0.1775, 0.7125, 0.2675, 0.8, 0.355, 0.89, 0.445, 0, 0.535, 0.0875, 0.6225, 0.1775, 0.7125, 0.2675, 0.8, 0.355, 0.89, 0.445, 0, 0.535, 0.0875, 0.6225, 0.1775, 0.7125, 0.2675, 0.8, 0.355, 0.89, 0.445, 0, 0.535, 0.0875, 0.6225, 0.1775, 0.7125, 0.2675, 0.8, 0.355, 0.89, 0.445, 0, 0.535, 0.0875, 0.6225, 0.1775, 0.7125, 0.2675, 0.8, 0.355, 0.89, 0.445],
  "SoftwareVersions": "syngo_MR_E11",
  "SpacingBetweenSlices": 2,
  "StationName": "AWP166018",
  "TaskName": "sfprescaled",
  "TotalReadoutTime": 0.0597409,
  "TxRefAmp": 236.726,
  "WipMemBlock": "32bd58aa-1e03-4493-b29c-db89c4fdd472||Sequence: R016 ve11c/master r/8780670; Nov 27 2017 15:05:12 by eja",
  "dcmmeta_affine": [
    [-1.9942935705184937, -0.11429180949926376, 0.09864266961812973, 111.95367431640625],
    [-0.12810981273651123, 1.9725128412246704, -0.3045997619628906, -76.19029235839844],
    [0.07988034188747406, 0.31004923582077026, 1.974205732345581, -47.425201416015625],
    [0.0, 0.0, 0.0, 1.0]
],
  "dcmmeta_reorient_transform": [
    [0.0, -1.0, 0.0, 103.0],
    [1.0, 0.0, 0.0, 0.0],
    [0.0, 0.0, 1.0, 0.0],
    [0.0, 0.0, 0.0, 1.0]
],
  "dcmmeta_shape": [104, 104, 66, 264],
  "dcmmeta_slice_dim": 2,
  "dcmmeta_version": 0.6,
  "global": {
    "const": {
      "AccessionNumber": "jtk5gtgt",
  "NumberOfVolumes": 264,
      "AcquisitionMatrix": [104, 0, 0, 104],
      "AngioFlag": "N",
      "BitsAllocated": 16,
      "BitsStored": 16,
      "BodyPartExamined": "BRAIN",
      "Columns": 936,
      "EchoNumbers": 1,
      "EchoTime": 37.0,
      "EchoTrainLength": 104,
      "FlipAngle": 68.0,
      "HighBit": 15,
      "ImageOrientationPatient": [0.99714680537193, 0.06405490928213, 0.03994016942138, -0.0571459040684, 0.98625641391266, -0.1550246163173],
      "ImagePositionPatient": [-882.26237148265, -1000.8375494808, 80.260130398869],
      "ImageType": [
        "ORIGINAL",
        "PRIMARY",
        "M",
        "MB",
        "ND",
        "MOSAIC"
],
      "ImagedNucleus": "1H",
      "ImagingFrequency": 123.190992,
      "InPlanePhaseEncodingDirection": "COL",
      "MRAcquisitionType": "2D",
      "MagneticFieldStrength": 3.0,
      "Manufacturer": "SIEMENS",
      "ManufacturerModelName": "Prisma",
      "Modality": "MR",
      "NumberOfAverages": 1.0,
      "NumberOfPhaseEncodingSteps": 104,
      "PercentPhaseFieldOfView": 100.0,
      "PercentSampling": 100.0,
      "PerformedProcedureStepStartTime": "153949.193000",
      "PhotometricInterpretation": "MONOCHROME2",
      "PixelBandwidth": 2290.0,
      "PixelRepresentation": 0,
      "PixelSpacing": [2.0, 2.0],
      "ProtocolName": "task-sfprescaled_cmrr_mbepi_s6_2mm_66sl_PA_TR1.0",
      "RepetitionTime": 1000.0,
      "Rows": 936,
      "SAR": 0.0664707864145,
      "SamplesPerPixel": 1,
      "ScanOptions": "FS",
      "ScanningSequence": "EP",
      "SequenceName": "epfid2d1_104",
      "SequenceVariant": [
        "SK",
        "SS"
],
      "SeriesDescription": "task-sfprescaled_cmrr_mbepi_s6_2mm_66sl_PA_TR1.0",
      "SeriesNumber": 18,
      "SeriesTime": "164849.602000",
      "SliceLocation": -29.68807552767,
      "SliceThickness": 2.0,
      "SmallestImagePixelValue": 0,
      "SoftwareVersions": "syngo MR E11",
      "SpacingBetweenSlices": 1.9999999650842,
      "SpecificCharacterSet": "ISO_IR 100",
      "StudyID": "1",
      "StudyTime": "153949.133000",
      "TransmitCoilName": "Body",
      "VariableFlipAngleFlag": "N",
      "WindowCenterWidthExplanation": "Algo1",
      "dBdt": 0.0},
    "slices": {}
  },
  "time": {
    "samples": {
      "AcquisitionNumber": [1, 2, 3, 4, 5, 6, 7, 8, 9, 10, 11, 12, 13, 14, 15, 16, 17, 18, 19, 20, 21, 22, 23, 24, 25, 26, 27, 28, 29, 30, 31, 32, 33, 34, 35, 36, 37, 38, 39, 40, 41, 42, 43, 44, 45, 46, 47, 48, 49, 50, 51, 52, 53, 54, 55, 56, 57, 58, 59, 60, 61, 62, 63, 64, 65, 66, 67, 68, 69, 70, 71, 72, 73, 74, 75, 76, 77, 78, 79, 80, 81, 82, 83, 84, 85, 86, 87, 88, 89, 90, 91, 92, 93, 94, 95, 96, 97, 98, 99, 100, 101, 102, 103, 104, 105, 106, 107, 108, 109, 110, 111, 112, 113, 114, 115, 116, 117, 118, 119, 120, 121, 122, 123, 124, 125, 126, 127, 128, 129, 130, 131, 132, 133, 134, 135, 136, 137, 138, 139, 140, 141, 142, 143, 144, 145, 146, 147, 148, 149, 150, 151, 152, 153, 154, 155, 156, 157, 158, 159, 160, 161, 162, 163, 164, 165, 166, 167, 168, 169, 170, 171, 172, 173, 174, 175, 176, 177, 178, 179, 180, 181, 182, 183, 184, 185, 186, 187, 188, 189, 190, 191, 192, 193, 194, 195, 196, 197, 198, 199, 200, 201, 202, 203, 204, 205, 206, 207, 208, 209, 210, 211, 212, 213, 214, 215, 216, 217, 218, 219, 220, 221, 222, 223, 224, 225, 226, 227, 228, 229, 230, 231, 232, 233, 234, 235, 236, 237, 238, 239, 240, 241, 242, 243, 244, 245, 246, 247, 248, 249, 250, 251, 252, 253, 254, 255, 256, 257, 258, 259, 260, 261, 262, 263, 264],
      "AcquisitionTime": ["164725.440000", "164726.440000", "164727.440000", "164728.440000", "164729.440000", "164730.440000", "164731.440000", "164732.440000", "164733.440000", "164734.440000", "164735.440000", "164736.440000", "164737.440000", "164738.440000", "164739.440000", "164740.440000", "164741.440000", "164742.440000", "164743.440000", "164744.440000", "164745.440000", "164746.440000", "164747.440000", "164748.440000", "164749.440000", "164750.440000", "164751.440000", "164752.440000", "164753.440000", "164754.440000", "164755.440000", "164756.440000", "164757.440000", "164758.440000", "164759.440000", "164800.440000", "164801.440000", "164802.440000", "164803.440000", "164804.440000", "164805.440000", "164806.440000", "164807.440000", "164808.440000", "164809.440000", "164810.440000", "164811.440000", "164812.440000", "164813.440000", "164814.440000", "164815.440000", "164816.440000", "164817.440000", "164818.440000", "164819.440000", "164820.440000", "164821.440000", "164822.440000", "164823.440000", "164824.440000", "164825.440000", "164826.440000", "164827.440000", "164828.440000", "164829.440000", "164830.440000", "164831.440000", "164832.440000", "164833.440000", "164834.440000", "164835.440000", "164836.440000", "164837.440000", "164838.440000", "164839.440000", "164840.440000", "164841.440000", "164842.440000", "164843.440000", "164844.440000", "164845.440000", "164846.440000", "164847.440000", "164848.440000", "164849.440000", "164850.440000", "164851.440000", "164852.440000", "164853.440000", "164854.440000", "164855.440000", "164856.440000", "164857.440000", "164858.440000", "164859.440000", "164900.440000", "164901.440000", "164902.440000", "164903.440000", "164904.440000", "164905.440000", "164906.440000", "164907.440000", "164908.440000", "164909.440000", "164910.440000", "164911.440000", "164912.440000", "164913.440000", "164914.440000", "164915.440000", "164916.440000", "164917.440000", "164918.440000", "164919.440000", "164920.440000", "164921.440000", "164922.440000", "164923.440000", "164924.440000", "164925.440000", "164926.440000", "164927.440000", "164928.440000", "164929.440000", "164930.440000", "164931.440000", "164932.440000", "164933.440000", "164934.440000", "164935.440000", "164936.440000", "164937.440000", "164938.440000", "164939.440000", "164940.440000", "164941.440000", "164942.440000", "164943.440000", "164944.440000", "164945.440000", "164946.440000", "164947.440000", "164948.440000", "164949.440000", "164950.440000", "164951.440000", "164952.440000", "164953.440000", "164954.440000", "164955.440000", "164956.440000", "164957.440000", "164958.440000", "164959.440000", "165000.440000", "165001.440000", "165002.440000", "165003.440000", "165004.440000", "165005.440000", "165006.440000", "165007.440000", "165008.440000", "165009.440000", "165010.440000", "165011.440000", "165012.440000", "165013.440000", "165014.440000", "165015.440000", "165016.440000", "165017.440000", "165018.440000", "165019.440000", "165020.440000", "165021.440000", "165022.440000", "165023.440000", "165024.440000", "165025.440000", "165026.440000", "165027.440000", "165028.440000", "165029.440000", "165030.440000", "165031.440000", "165032.440000", "165033.440000", "165034.440000", "165035.440000", "165036.440000", "165037.440000", "165038.440000", "165039.440000", "165040.440000", "165041.440000", "165042.440000", "165043.440000", "165044.440000", "165045.440000", "165046.440000", "165047.440000", "165048.440000", "165049.440000", "165050.440000", "165051.440000", "165052.440000", "165053.440000", "165054.440000", "165055.440000", "165056.440000", "165057.440000", "165058.440000", "165059.440000", "165100.440000", "165101.440000", "165102.440000", "165103.440000", "165104.440000", "165105.440000", "165106.440000", "165107.440000", "165108.440000", "165109.440000", "165110.440000", "165111.440000", "165112.440000", "165113.440000", "165114.440000", "165115.440000", "165116.440000", "165117.440000", "165118.440000", "165119.440000", "165120.440000", "165121.440000", "165122.440000", "165123.440000", "165124.440000", "165125.440000", "165126.440000", "165127.440000", "165128.440000", "165129.440000", "165130.440000", "165131.440000", "165132.440000", "165133.440000", "165134.440000", "165135.440000", "165136.440000", "165137.440000", "165138.440000", "165139.440000", "165140.440000", "165141.440000", "165142.440000", "165143.440000", "165144.440000", "165145.440000", "165146.440000", "165147.440000", "165148.440000"],
      "ContentTime": ["164849.605000", "164849.608000", "164849.611000", "164849.614000", "164849.617000", "164849.620000", "164849.623000", "164849.626000", "164849.629000", "164849.632000", "164849.635000", "164849.638000", "164849.641000", "164849.644000", "164849.647000", "164849.650000", "164849.662000", "164849.665000", "164849.668000", "164849.671000", "164849.674000", "164849.677000", "164849.680000", "164849.683000", "164849.687000", "164849.690000", "164849.693000", "164849.696000", "164849.699000", "164849.702000", "164849.705000", "164849.708000", "164849.710000", "164849.713000", "164849.716000", "164849.719000", "164849.731000", "164849.734000", "164849.737000", "164849.740000", "164849.745000", "164849.748000", "164849.751000", "164849.754000", "164849.757000", "164849.760000", "164849.762000", "164909.574000", "164909.577000", "164909.582000", "164909.585000", "164909.588000", "164909.591000", "164909.594000", "164909.597000", "164909.600000", "164909.603000", "164909.606000", "164909.609000", "164909.612000", "164909.615000", "164909.618000", "164909.621000", "164909.624000", "164909.627000", "164909.630000", "164909.633000", "164909.636000", "164909.638000", "164909.641000", "164909.644000", "164909.647000", "164909.650000", "164909.653000", "164909.656000", "164929.574000", "164929.577000", "164929.580000", "164929.583000", "164929.586000", "164929.589000", "164929.592000", "164929.595000", "164929.598000", "164929.601000", "164929.604000", "164929.607000", "164929.610000", "164929.613000", "164929.616000", "164929.619000", "164929.622000", "164929.625000", "164929.628000", "164929.631000", "164929.634000", "164929.637000", "164929.640000", "164929.643000", "164929.646000", "164929.649000", "164929.652000", "164929.655000", "164949.574000", "164949.577000", "164949.580000", "164949.583000", "164949.586000", "164949.589000", "164949.592000", "164949.595000", "164949.598000", "164949.601000", "164949.604000", "164949.607000", "164949.610000", "164949.613000", "164949.616000", "164949.619000", "164949.622000", "164949.625000", "164949.628000", "164949.631000", "164949.639000", "164949.642000", "164949.645000", "164949.648000", "164949.651000", "164949.654000", "164949.657000", "164949.660000", "164949.663000", "165009.574000", "165009.577000", "165009.580000", "165009.583000", "165009.586000", "165009.589000", "165009.592000", "165009.595000", "165009.598000", "165009.602000", "165009.604000", "165009.607000", "165009.611000", "165009.614000", "165009.617000", "165009.619000", "165009.623000", "165009.626000", "165009.629000", "165009.632000", "165009.635000", "165009.638000", "165009.641000", "165009.644000", "165009.646000", "165009.649000", "165009.652000", "165009.655000", "165029.574000", "165029.577000", "165029.580000", "165029.583000", "165029.586000", "165029.589000", "165029.592000", "165029.595000", "165029.598000", "165029.601000", "165029.604000", "165029.607000", "165029.610000", "165029.613000", "165029.616000", "165029.619000", "165029.622000", "165029.625000", "165029.628000", "165029.631000", "165029.634000", "165029.637000", "165029.640000", "165049.574000", "165049.577000", "165049.580000", "165049.583000", "165049.586000", "165049.589000", "165049.592000", "165049.595000", "165049.598000", "165049.601000", "165049.604000", "165049.607000", "165049.610000", "165049.613000", "165049.616000", "165049.619000", "165049.622000", "165049.625000", "165049.628000", "165049.631000", "165109.574000", "165109.577000", "165109.580000", "165109.591000", "165109.594000", "165109.597000", "165109.600000", "165109.603000", "165109.606000", "165109.609000", "165109.612000", "165109.615000", "165109.618000", "165109.621000", "165109.624000", "165109.627000", "165109.630000", "165109.633000", "165109.636000", "165109.639000", "165129.588000", "165129.591000", "165129.594000", "165129.597000", "165129.600000", "165129.603000", "165129.606000", "165129.609000", "165129.612000", "165129.615000", "165129.618000", "165129.621000", "165129.624000", "165129.627000", "165129.630000", "165129.633000", "165129.636000", "165129.639000", "165129.642000", "165129.645000", "165149.574000", "165149.577000", "165149.580000", "165149.583000", "165149.586000", "165149.589000", "165149.592000", "165149.595000", "165149.598000", "165149.601000", "165149.604000", "165149.607000", "165149.610000", "165149.613000", "165149.616000", "165149.619000", "165149.622000", "165149.625000", "165149.628000", "165149.631000", "165150.474000"],
      "InstanceCreationTime": ["164849.605000", "164849.608000", "164849.611000", "164849.614000", "164849.617000", "164849.620000", "164849.623000", "164849.626000", "164849.629000", "164849.632000", "164849.635000", "164849.638000", "164849.641000", "164849.644000", "164849.647000", "164849.650000", "164849.662000", "164849.665000", "164849.668000", "164849.671000", "164849.674000", "164849.677000", "164849.680000", "164849.683000", "164849.687000", "164849.690000", "164849.693000", "164849.696000", "164849.699000", "164849.702000", "164849.705000", "164849.708000", "164849.710000", "164849.713000", "164849.716000", "164849.719000", "164849.731000", "164849.734000", "164849.737000", "164849.740000", "164849.745000", "164849.748000", "164849.751000", "164849.754000", "164849.757000", "164849.760000", "164849.762000", "164909.574000", "164909.577000", "164909.582000", "164909.585000", "164909.588000", "164909.591000", "164909.594000", "164909.597000", "164909.600000", "164909.603000", "164909.606000", "164909.609000", "164909.612000", "164909.615000", "164909.618000", "164909.621000", "164909.624000", "164909.627000", "164909.630000", "164909.633000", "164909.636000", "164909.638000", "164909.641000", "164909.644000", "164909.647000", "164909.650000", "164909.653000", "164909.656000", "164929.574000", "164929.577000", "164929.580000", "164929.583000", "164929.586000", "164929.589000", "164929.592000", "164929.595000", "164929.598000", "164929.601000", "164929.604000", "164929.607000", "164929.610000", "164929.613000", "164929.616000", "164929.619000", "164929.622000", "164929.625000", "164929.628000", "164929.631000", "164929.634000", "164929.637000", "164929.640000", "164929.643000", "164929.646000", "164929.649000", "164929.652000", "164929.655000", "164949.574000", "164949.577000", "164949.580000", "164949.583000", "164949.586000", "164949.589000", "164949.592000", "164949.595000", "164949.598000", "164949.601000", "164949.604000", "164949.607000", "164949.610000", "164949.613000", "164949.616000", "164949.619000", "164949.622000", "164949.625000", "164949.628000", "164949.631000", "164949.639000", "164949.642000", "164949.645000", "164949.648000", "164949.651000", "164949.654000", "164949.657000", "164949.660000", "164949.663000", "165009.574000", "165009.577000", "165009.580000", "165009.583000", "165009.586000", "165009.589000", "165009.592000", "165009.595000", "165009.598000", "165009.602000", "165009.604000", "165009.607000", "165009.611000", "165009.614000", "165009.617000", "165009.619000", "165009.623000", "165009.626000", "165009.629000", "165009.632000", "165009.635000", "165009.638000", "165009.641000", "165009.644000", "165009.646000", "165009.649000", "165009.652000", "165009.655000", "165029.574000", "165029.577000", "165029.580000", "165029.583000", "165029.586000", "165029.589000", "165029.592000", "165029.595000", "165029.598000", "165029.601000", "165029.604000", "165029.607000", "165029.610000", "165029.613000", "165029.616000", "165029.619000", "165029.622000", "165029.625000", "165029.628000", "165029.631000", "165029.634000", "165029.637000", "165029.640000", "165049.574000", "165049.577000", "165049.580000", "165049.583000", "165049.586000", "165049.589000", "165049.592000", "165049.595000", "165049.598000", "165049.601000", "165049.604000", "165049.607000", "165049.610000", "165049.613000", "165049.616000", "165049.619000", "165049.622000", "165049.625000", "165049.628000", "165049.631000", "165109.574000", "165109.577000", "165109.580000", "165109.591000", "165109.594000", "165109.597000", "165109.600000", "165109.603000", "165109.606000", "165109.609000", "165109.612000", "165109.615000", "165109.618000", "165109.621000", "165109.624000", "165109.627000", "165109.630000", "165109.633000", "165109.636000", "165109.639000", "165129.588000", "165129.591000", "165129.594000", "165129.597000", "165129.600000", "165129.603000", "165129.606000", "165129.609000", "165129.612000", "165129.615000", "165129.618000", "165129.621000", "165129.624000", "165129.627000", "165129.630000", "165129.633000", "165129.636000", "165129.639000", "165129.642000", "165129.645000", "165149.574000", "165149.577000", "165149.580000", "165149.583000", "165149.586000", "165149.589000", "165149.592000", "165149.595000", "165149.598000", "165149.601000", "165149.604000", "165149.607000", "165149.610000", "165149.613000", "165149.616000", "165149.619000", "165149.622000", "165149.625000", "165149.628000", "165149.631000", "165150.474000"],
      "InstanceNumber": [1, 2, 3, 4, 5, 6, 7, 8, 9, 10, 11, 12, 13, 14, 15, 16, 17, 18, 19, 20, 21, 22, 23, 24, 25, 26, 27, 28, 29, 30, 31, 32, 33, 34, 35, 36, 37, 38, 39, 40, 41, 42, 43, 44, 45, 46, 47, 48, 49, 50, 51, 52, 53, 54, 55, 56, 57, 58, 59, 60, 61, 62, 63, 64, 65, 66, 67, 68, 69, 70, 71, 72, 73, 74, 75, 76, 77, 78, 79, 80, 81, 82, 83, 84, 85, 86, 87, 88, 89, 90, 91, 92, 93, 94, 95, 96, 97, 98, 99, 100, 101, 102, 103, 104, 105, 106, 107, 108, 109, 110, 111, 112, 113, 114, 115, 116, 117, 118, 119, 120, 121, 122, 123, 124, 125, 126, 127, 128, 129, 130, 131, 132, 133, 134, 135, 136, 137, 138, 139, 140, 141, 142, 143, 144, 145, 146, 147, 148, 149, 150, 151, 152, 153, 154, 155, 156, 157, 158, 159, 160, 161, 162, 163, 164, 165, 166, 167, 168, 169, 170, 171, 172, 173, 174, 175, 176, 177, 178, 179, 180, 181, 182, 183, 184, 185, 186, 187, 188, 189, 190, 191, 192, 193, 194, 195, 196, 197, 198, 199, 200, 201, 202, 203, 204, 205, 206, 207, 208, 209, 210, 211, 212, 213, 214, 215, 216, 217, 218, 219, 220, 221, 222, 223, 224, 225, 226, 227, 228, 229, 230, 231, 232, 233, 234, 235, 236, 237, 238, 239, 240, 241, 242, 243, 244, 245, 246, 247, 248, 249, 250, 251, 252, 253, 254, 255, 256, 257, 258, 259, 260, 261, 262, 263, 264],
      "LargestImagePixelValue": [36083, 35414, 35181, 35469, 35276, 34950, 34571, 34349, 35080, 35074, 35000, 35381, 34878, 35067, 35187, 35069, 35357, 34959, 35232, 34792, 34789, 35580, 34832, 35191, 35311, 34964, 35500, 35365, 35408, 34953, 35450, 35533, 35115, 35207, 35163, 34678, 34984, 35444, 34128, 35285, 35141, 35062, 35639, 35535, 35525, 35122, 35245, 35227, 35188, 35497, 34962, 35479, 35395, 35025, 35316, 35163, 35312, 35274, 35252, 35536, 35888, 34990, 35404, 35263, 35080, 35171, 35076, 35281, 35448, 35401, 35194, 34922, 35256, 35646, 35313, 35387, 35033, 35426, 35237, 35287, 35510, 35594, 35353, 35007, 35309, 35734, 35472, 35689, 35234, 35423, 35743, 35741, 35288, 35521, 35576, 35585, 35721, 35612, 35233, 35818, 35828, 35672, 35660, 35031, 35154, 35557, 35106, 35368, 35438, 35483, 35515, 35271, 35283, 35429, 35279, 35503, 35007, 35761, 36133, 35626, 35410, 34882, 35471, 35321, 35241, 34912, 34936, 35262, 34808, 35848, 35026, 35189, 35465, 35240, 35596, 35387, 35754, 35688, 35907, 35518, 35104, 35369, 35367, 35033, 35449, 34790, 35518, 35730, 35378, 35943, 35070, 34926, 35965, 35531, 35582, 34914, 35208, 35072, 35599, 35479, 34964, 35173, 35601, 34601, 35679, 35569, 35500, 35374, 35155, 35521, 35207, 35423, 34875, 35612, 35435, 34750, 35414, 35121, 35196, 35322, 35180, 35394, 35249, 35194, 35026, 34962, 35604, 35329, 35974, 35819, 35530, 35345, 35425, 35326, 35557, 35430, 35320, 35623, 34929, 35344, 35711, 35372, 35173, 35682, 34906, 35258, 35529, 35842, 35394, 35715, 35911, 35469, 35592, 35388, 35249, 35302, 35392, 35373, 34995, 35155, 35443, 35414, 35087, 35646, 35540, 35403, 35108, 34968, 35540, 35409, 35684, 35405, 35368, 36040, 35507, 35582, 35690, 35227, 35294, 35287, 35004, 34915, 35014, 35175, 35423, 34990, 34792, 35734, 35258, 35453, 35693, 35668, 35150, 35199, 35369, 35414, 35352, 35387, 35031, 35008, 34799, 35570, 35404, 35218],
      "WindowCenter": [10211.0, 10182.0, 10169.0, 10172.0, 10164.0, 10158.0, 10143.0, 10137.0, 10146.0, 10145.0, 10130.0, 10135.0, 10127.0, 10127.0, 10135.0, 10136.0, 10144.0, 10138.0, 10145.0, 10147.0, 10156.0, 10170.0, 10168.0, 10166.0, 10173.0, 10167.0, 10166.0, 10171.0, 10162.0, 10150.0, 10154.0, 10153.0, 10156.0, 10163.0, 10170.0, 10162.0, 10160.0, 10169.0, 10150.0, 10155.0, 10162.0, 10155.0, 10167.0, 10168.0, 10161.0, 10155.0, 10151.0, 10143.0, 10129.0, 10133.0, 10127.0, 10133.0, 10140.0, 10130.0, 10136.0, 10134.0, 10133.0, 10132.0, 10131.0, 10130.0, 10137.0, 10125.0, 10139.0, 10142.0, 10141.0, 10144.0, 10140.0, 10133.0, 10139.0, 10139.0, 10142.0, 10136.0, 10141.0, 10148.0, 10141.0, 10140.0, 10125.0, 10127.0, 10117.0, 10127.0, 10131.0, 10141.0, 10143.0, 10147.0, 10152.0, 10150.0, 10148.0, 10145.0, 10134.0, 10132.0, 10139.0, 10147.0, 10142.0, 10151.0, 10151.0, 10151.0, 10148.0, 10139.0, 10132.0, 10138.0, 10146.0, 10140.0, 10141.0, 10138.0, 10143.0, 10149.0, 10142.0, 10141.0, 10141.0, 10132.0, 10131.0, 10123.0, 10122.0, 10121.0, 10115.0, 10122.0, 10116.0, 10121.0, 10127.0, 10129.0, 10129.0, 10118.0, 10136.0, 10133.0, 10133.0, 10129.0, 10126.0, 10125.0, 10118.0, 10120.0, 10110.0, 10113.0, 10112.0, 10112.0, 10117.0, 10112.0, 10118.0, 10120.0, 10123.0, 10129.0, 10124.0, 10129.0, 10117.0, 10111.0, 10121.0, 10109.0, 10114.0, 10122.0, 10122.0, 10145.0, 10133.0, 10133.0, 10138.0, 10129.0, 10121.0, 10110.0, 10116.0, 10124.0, 10123.0, 10125.0, 10118.0, 10122.0, 10130.0, 10121.0, 10133.0, 10133.0, 10125.0, 10126.0, 10125.0, 10133.0, 10126.0, 10125.0, 10119.0, 10129.0, 10131.0, 10124.0, 10132.0, 10131.0, 10126.0, 10127.0, 10126.0, 10131.0, 10126.0, 10119.0, 10126.0, 10120.0, 10123.0, 10117.0, 10128.0, 10120.0, 10121.0, 10116.0, 10122.0, 10118.0, 10124.0, 10125.0, 10126.0, 10124.0, 10119.0, 10124.0, 10137.0, 10123.0, 10124.0, 10128.0, 10117.0, 10117.0, 10123.0, 10130.0, 10132.0, 10138.0, 10131.0, 10130.0, 10129.0, 10131.0, 10130.0, 10134.0, 10139.0, 10140.0, 10135.0, 10129.0, 10141.0, 10142.0, 10136.0, 10142.0, 10138.0, 10131.0, 10132.0, 10127.0, 10138.0, 10140.0, 10139.0, 10148.0, 10142.0, 10147.0, 10136.0, 10132.0, 10133.0, 10126.0, 10131.0, 10126.0, 10121.0, 10128.0, 10127.0, 10132.0, 10134.0, 10127.0, 10126.0, 10130.0, 10123.0, 10116.0, 10125.0, 10122.0, 10131.0, 10131.0, 10132.0, 10123.0, 10117.0, 10114.0, 10106.0, 10108.0, 10115.0, 10130.0, 10132.0, 10125.0],
      "WindowWidth": [21812.0, 21739.0, 21709.0, 21712.0, 21691.0, 21678.0, 21643.0, 21631.0, 21647.0, 21641.0, 21610.0, 21615.0, 21601.0, 21601.0, 21618.0, 21624.0, 21640.0, 21631.0, 21645.0, 21653.0, 21677.0, 21706.0, 21705.0, 21703.0, 21715.0, 21708.0, 21701.0, 21711.0, 21692.0, 21665.0, 21671.0, 21671.0, 21677.0, 21692.0, 21708.0, 21693.0, 21692.0, 21702.0, 21664.0, 21674.0, 21685.0, 21676.0, 21696.0, 21702.0, 21687.0, 21671.0, 21661.0, 21641.0, 21613.0, 21620.0, 21610.0, 21622.0, 21638.0, 21620.0, 21630.0, 21626.0, 21620.0, 21618.0, 21618.0, 21614.0, 21627.0, 21606.0, 21634.0, 21644.0, 21644.0, 21647.0, 21639.0, 21623.0, 21634.0, 21636.0, 21641.0, 21630.0, 21638.0, 21651.0, 21640.0, 21632.0, 21602.0, 21596.0, 21580.0, 21604.0, 21616.0, 21640.0, 21647.0, 21658.0, 21670.0, 21662.0, 21656.0, 21646.0, 21623.0, 21622.0, 21636.0, 21654.0, 21648.0, 21667.0, 21668.0, 21665.0, 21655.0, 21628.0, 21614.0, 21629.0, 21649.0, 21640.0, 21644.0, 21640.0, 21651.0, 21660.0, 21644.0, 21640.0, 21635.0, 21615.0, 21609.0, 21596.0, 21592.0, 21592.0, 21583.0, 21594.0, 21584.0, 21592.0, 21605.0, 21612.0, 21609.0, 21590.0, 21625.0, 21624.0, 21624.0, 21615.0, 21608.0, 21605.0, 21591.0, 21590.0, 21570.0, 21575.0, 21568.0, 21568.0, 21577.0, 21570.0, 21583.0, 21588.0, 21596.0, 21608.0, 21604.0, 21608.0, 21585.0, 21577.0, 21592.0, 21569.0, 21579.0, 21593.0, 21597.0, 21642.0, 21619.0, 21624.0, 21628.0, 21602.0, 21586.0, 21567.0, 21581.0, 21600.0, 21598.0, 21601.0, 21588.0, 21596.0, 21612.0, 21600.0, 21620.0, 21619.0, 21604.0, 21605.0, 21605.0, 21620.0, 21606.0, 21599.0, 21587.0, 21604.0, 21608.0, 21600.0, 21615.0, 21613.0, 21607.0, 21607.0, 21608.0, 21613.0, 21606.0, 21592.0, 21605.0, 21597.0, 21596.0, 21585.0, 21603.0, 21582.0, 21585.0, 21581.0, 21594.0, 21591.0, 21604.0, 21608.0, 21614.0, 21604.0, 21594.0, 21601.0, 21624.0, 21594.0, 21595.0, 21603.0, 21583.0, 21584.0, 21598.0, 21612.0, 21617.0, 21627.0, 21610.0, 21611.0, 21609.0, 21610.0, 21612.0, 21620.0, 21634.0, 21634.0, 21623.0, 21615.0, 21636.0, 21638.0, 21630.0, 21638.0, 21628.0, 21611.0, 21613.0, 21606.0, 21625.0, 21631.0, 21632.0, 21650.0, 21642.0, 21650.0, 21631.0, 21621.0, 21620.0, 21606.0, 21615.0, 21607.0, 21598.0, 21611.0, 21609.0, 21617.0, 21622.0, 21610.0, 21603.0, 21606.0, 21593.0, 21576.0, 21591.0, 21588.0, 21609.0, 21611.0, 21614.0, 21595.0, 21580.0, 21572.0, 21555.0, 21560.0, 21580.0, 21610.0, 21617.0, 21604.0]
    },
    "slices": {}
  }
}