{
  "AcquisitionMatrixPE": 104,
  "AcquisitionNumber": 1,
  "AcquisitionTime": "17:01:40.477500",
  "BandwidthPerPixelPhaseEncode": 16.578,
  "BaseResolution": 104,
  "BodyPartExamined": "BRAIN",
  "ConsistencyInfo": "N4_VE11C_LATEST_20160120",
  "ConversionSoftware": "dcm2niix",
  "ConversionSoftwareVersion": "v1.0.20190410  GCC6.3.0",
  "DerivedVendorReportedEchoSpacing": 0.000580009,
  "DeviceSerialNumber": "166018",
  "DwellTime": 2.1e-06,
  "EchoTime": 0.037,
  "EchoTrainLength": 104,
  "EffectiveEchoSpacing": 0.000580009,
  "FlipAngle": 68,
  "ImageComments": "Unaliased_MB6_PE3_LB",
  "ImageOrientationPatientDICOM": [0.997147, 0.0640549, 0.0399402, -0.0571459, 0.986256, -0.155025],
  "ImageType": [
    "ORIGINAL",
    "PRIMARY",
    "M",
    "MB",
    "ND",
    "MOSAIC"
],
  "ImagingFrequency": 123.191,
  "InPlanePhaseEncodingDirectionDICOM": "COL",
  "InstitutionAddress": "Washington_Place_6_NYC_NYC_US_10003",
  "InstitutionName": "NYU_Center_for_Brain_Imaging",
  "InstitutionalDepartmentName": "Department",
  "MRAcquisitionType": "2D",
  "MagneticFieldStrength": 3,
  "Manufacturer": "Siemens",
  "ManufacturersModelName": "Prisma",
  "Modality": "MR",
  "MultibandAccelerationFactor": 6,
  "PartialFourier": 1,
  "PatientPosition": "HFS",
  "PercentPhaseFOV": 100,
  "PhaseEncodingDirection": "j",
  "PhaseEncodingSteps": 104,
  "PhaseResolution": 1,
  "PixelBandwidth": 2290,
  "ProcedureStepDescription": "Investigators_Winawer",
  "ProtocolName": "task-sfprescaled_cmrr_mbepi_s6_2mm_66sl_PA_TR1.0",
  "PulseSequenceDetails": "%CustomerSeq%_cmrr_mbep2d_bold",
  "ReceiveCoilActiveElements": "HC1-7",
  "ReceiveCoilName": "HeadNeck_64",
  "ReconMatrixPE": 104,
  "RepetitionTime": 1,
  "SAR": 0.0664708,
  "ScanOptions": "FS",
  "ScanningSequence": "EP",
  "SequenceName": "epfid2d1_104",
  "SequenceVariant": "SK_SS",
  "SeriesDescription": "task-sfprescaled_cmrr_mbepi_s6_2mm_66sl_PA_TR1.0",
  "SeriesNumber": 24,
  "ShimSetting": [264, -12600, -8425, 335, -5, -74, 39, 12],
  "SliceThickness": 2,
  "SliceTiming": [0, 0.535, 0.09, 0.6225, 0.1775, 0.7125, 0.2675, 0.8025, 0.3575, 0.89, 0.445, 0, 0.535, 0.09, 0.6225, 0.1775, 0.7125, 0.2675, 0.8025, 0.3575, 0.89, 0.445, 0, 0.535, 0.09, 0.6225, 0.1775, 0.7125, 0.2675, 0.8025, 0.3575, 0.89, 0.445, 0, 0.535, 0.09, 0.6225, 0.1775, 0.7125, 0.2675, 0.8025, 0.3575, 0.89, 0.445, 0, 0.535, 0.09, 0.6225, 0.1775, 0.7125, 0.2675, 0.8025, 0.3575, 0.89, 0.445, 0, 0.535, 0.09, 0.6225, 0.1775, 0.7125, 0.2675, 0.8025, 0.3575, 0.89, 0.445],
  "SoftwareVersions": "syngo_MR_E11",
  "SpacingBetweenSlices": 2,
  "StationName": "AWP166018",
  "TaskName": "sfprescaled",
  "TotalReadoutTime": 0.0597409,
  "TxRefAmp": 236.726,
  "WipMemBlock": "32bd58aa-1e03-4493-b29c-db89c4fdd472||Sequence: R016 ve11c/master r/8780670; Nov 27 2017 15:05:12 by eja",
  "dcmmeta_affine": [
    [-1.9942935705184937, -0.11429180949926376, 0.09864266961812973, 111.95367431640625],
    [-0.12810981273651123, 1.9725128412246704, -0.3045997619628906, -76.19029235839844],
    [0.07988034188747406, 0.31004923582077026, 1.974205732345581, -47.425201416015625],
    [0.0, 0.0, 0.0, 1.0]
],
  "dcmmeta_reorient_transform": [
    [0.0, -1.0, 0.0, 103.0],
    [1.0, 0.0, 0.0, 0.0],
    [0.0, 0.0, 1.0, 0.0],
    [0.0, 0.0, 0.0, 1.0]
],
  "dcmmeta_shape": [104, 104, 66, 264],
  "dcmmeta_slice_dim": 2,
  "dcmmeta_version": 0.6,
  "global": {
    "const": {
      "AccessionNumber": "jtk5gtgt",
  "NumberOfVolumes": 264,
      "AcquisitionMatrix": [104, 0, 0, 104],
      "AngioFlag": "N",
      "BitsAllocated": 16,
      "BitsStored": 16,
      "BodyPartExamined": "BRAIN",
      "Columns": 936,
      "EchoNumbers": 1,
      "EchoTime": 37.0,
      "EchoTrainLength": 104,
      "FlipAngle": 68.0,
      "HighBit": 15,
      "ImageOrientationPatient": [0.99714680537193, 0.06405490928213, 0.03994016942138, -0.0571459040684, 0.98625641391266, -0.1550246163173],
      "ImagePositionPatient": [-882.26237148265, -1000.8375494808, 80.260130398869],
      "ImageType": [
        "ORIGINAL",
        "PRIMARY",
        "M",
        "MB",
        "ND",
        "MOSAIC"
],
      "ImagedNucleus": "1H",
      "ImagingFrequency": 123.190992,
      "InPlanePhaseEncodingDirection": "COL",
      "MRAcquisitionType": "2D",
      "MagneticFieldStrength": 3.0,
      "Manufacturer": "SIEMENS",
      "ManufacturerModelName": "Prisma",
      "Modality": "MR",
      "NumberOfAverages": 1.0,
      "NumberOfPhaseEncodingSteps": 104,
      "PercentPhaseFieldOfView": 100.0,
      "PercentSampling": 100.0,
      "PerformedProcedureStepStartTime": "153949.193000",
      "PhotometricInterpretation": "MONOCHROME2",
      "PixelBandwidth": 2290.0,
      "PixelRepresentation": 0,
      "PixelSpacing": [2.0, 2.0],
      "ProtocolName": "task-sfprescaled_cmrr_mbepi_s6_2mm_66sl_PA_TR1.0",
      "RepetitionTime": 1000.0,
      "Rows": 936,
      "SAR": 0.0664707864145,
      "SamplesPerPixel": 1,
      "ScanOptions": "FS",
      "ScanningSequence": "EP",
      "SequenceName": "epfid2d1_104",
      "SequenceVariant": [
        "SK",
        "SS"
],
      "SeriesDescription": "task-sfprescaled_cmrr_mbepi_s6_2mm_66sl_PA_TR1.0",
      "SeriesNumber": 24,
      "SeriesTime": "170309.603000",
      "SliceLocation": -29.68807552767,
      "SliceThickness": 2.0,
      "SmallestImagePixelValue": 0,
      "SoftwareVersions": "syngo MR E11",
      "SpacingBetweenSlices": 1.9999999650842,
      "SpecificCharacterSet": "ISO_IR 100",
      "StudyID": "1",
      "StudyTime": "153949.133000",
      "TransmitCoilName": "Body",
      "VariableFlipAngleFlag": "N",
      "WindowCenterWidthExplanation": "Algo1",
      "dBdt": 0.0},
    "slices": {}
  },
  "time": {
    "samples": {
      "AcquisitionNumber": [1, 2, 3, 4, 5, 6, 7, 8, 9, 10, 11, 12, 13, 14, 15, 16, 17, 18, 19, 20, 21, 22, 23, 24, 25, 26, 27, 28, 29, 30, 31, 32, 33, 34, 35, 36, 37, 38, 39, 40, 41, 42, 43, 44, 45, 46, 47, 48, 49, 50, 51, 52, 53, 54, 55, 56, 57, 58, 59, 60, 61, 62, 63, 64, 65, 66, 67, 68, 69, 70, 71, 72, 73, 74, 75, 76, 77, 78, 79, 80, 81, 82, 83, 84, 85, 86, 87, 88, 89, 90, 91, 92, 93, 94, 95, 96, 97, 98, 99, 100, 101, 102, 103, 104, 105, 106, 107, 108, 109, 110, 111, 112, 113, 114, 115, 116, 117, 118, 119, 120, 121, 122, 123, 124, 125, 126, 127, 128, 129, 130, 131, 132, 133, 134, 135, 136, 137, 138, 139, 140, 141, 142, 143, 144, 145, 146, 147, 148, 149, 150, 151, 152, 153, 154, 155, 156, 157, 158, 159, 160, 161, 162, 163, 164, 165, 166, 167, 168, 169, 170, 171, 172, 173, 174, 175, 176, 177, 178, 179, 180, 181, 182, 183, 184, 185, 186, 187, 188, 189, 190, 191, 192, 193, 194, 195, 196, 197, 198, 199, 200, 201, 202, 203, 204, 205, 206, 207, 208, 209, 210, 211, 212, 213, 214, 215, 216, 217, 218, 219, 220, 221, 222, 223, 224, 225, 226, 227, 228, 229, 230, 231, 232, 233, 234, 235, 236, 237, 238, 239, 240, 241, 242, 243, 244, 245, 246, 247, 248, 249, 250, 251, 252, 253, 254, 255, 256, 257, 258, 259, 260, 261, 262, 263, 264],
      "AcquisitionTime": ["170140.477500", "170141.477500", "170142.477500", "170143.477500", "170144.477500", "170145.477500", "170146.477500", "170147.477500", "170148.477500", "170149.477500", "170150.477500", "170151.477500", "170152.477500", "170153.477500", "170154.477500", "170155.477500", "170156.477500", "170157.477500", "170158.477500", "170159.477500", "170200.477500", "170201.477500", "170202.477500", "170203.477500", "170204.477500", "170205.477500", "170206.477500", "170207.477500", "170208.477500", "170209.477500", "170210.477500", "170211.477500", "170212.477500", "170213.477500", "170214.477500", "170215.477500", "170216.477500", "170217.477500", "170218.477500", "170219.477500", "170220.477500", "170221.477500", "170222.477500", "170223.477500", "170224.477500", "170225.477500", "170226.477500", "170227.477500", "170228.477500", "170229.477500", "170230.477500", "170231.477500", "170232.477500", "170233.477500", "170234.477500", "170235.477500", "170236.477500", "170237.477500", "170238.477500", "170239.477500", "170240.477500", "170241.477500", "170242.477500", "170243.477500", "170244.477500", "170245.477500", "170246.477500", "170247.477500", "170248.477500", "170249.477500", "170250.477500", "170251.477500", "170252.477500", "170253.477500", "170254.477500", "170255.477500", "170256.477500", "170257.477500", "170258.477500", "170259.477500", "170300.477500", "170301.477500", "170302.477500", "170303.477500", "170304.477500", "170305.477500", "170306.477500", "170307.477500", "170308.477500", "170309.477500", "170310.477500", "170311.477500", "170312.477500", "170313.477500", "170314.477500", "170315.477500", "170316.477500", "170317.477500", "170318.477500", "170319.477500", "170320.477500", "170321.477500", "170322.477500", "170323.477500", "170324.477500", "170325.477500", "170326.477500", "170327.477500", "170328.477500", "170329.477500", "170330.477500", "170331.477500", "170332.477500", "170333.477500", "170334.477500", "170335.477500", "170336.477500", "170337.477500", "170338.477500", "170339.477500", "170340.477500", "170341.477500", "170342.477500", "170343.477500", "170344.477500", "170345.477500", "170346.477500", "170347.477500", "170348.477500", "170349.477500", "170350.477500", "170351.477500", "170352.477500", "170353.477500", "170354.477500", "170355.477500", "170356.477500", "170357.477500", "170358.477500", "170359.477500", "170400.477500", "170401.477500", "170402.477500", "170403.477500", "170404.477500", "170405.477500", "170406.477500", "170407.477500", "170408.477500", "170409.477500", "170410.477500", "170411.477500", "170412.477500", "170413.477500", "170414.477500", "170415.477500", "170416.477500", "170417.477500", "170418.477500", "170419.477500", "170420.477500", "170421.477500", "170422.477500", "170423.477500", "170424.477500", "170425.477500", "170426.477500", "170427.477500", "170428.477500", "170429.477500", "170430.477500", "170431.477500", "170432.477500", "170433.477500", "170434.477500", "170435.477500", "170436.477500", "170437.477500", "170438.477500", "170439.477500", "170440.477500", "170441.477500", "170442.477500", "170443.477500", "170444.477500", "170445.477500", "170446.477500", "170447.477500", "170448.477500", "170449.477500", "170450.477500", "170451.477500", "170452.477500", "170453.477500", "170454.477500", "170455.477500", "170456.477500", "170457.477500", "170458.477500", "170459.477500", "170500.477500", "170501.477500", "170502.477500", "170503.477500", "170504.477500", "170505.477500", "170506.477500", "170507.477500", "170508.477500", "170509.477500", "170510.477500", "170511.477500", "170512.477500", "170513.477500", "170514.477500", "170515.477500", "170516.477500", "170517.477500", "170518.477500", "170519.477500", "170520.477500", "170521.477500", "170522.477500", "170523.477500", "170524.477500", "170525.477500", "170526.477500", "170527.477500", "170528.477500", "170529.477500", "170530.477500", "170531.477500", "170532.477500", "170533.477500", "170534.477500", "170535.477500", "170536.477500", "170537.477500", "170538.477500", "170539.477500", "170540.477500", "170541.477500", "170542.477500", "170543.477500", "170544.477500", "170545.477500", "170546.477500", "170547.477500", "170548.477500", "170549.477500", "170550.477500", "170551.477500", "170552.477500", "170553.477500", "170554.477500", "170555.477500", "170556.477500", "170557.477500", "170558.477500", "170559.477500", "170600.477500", "170601.477500", "170602.477500", "170603.477500"],
      "ContentTime": ["170309.606000", "170309.615000", "170309.618000", "170309.621000", "170309.624000", "170309.627000", "170309.637000", "170309.640000", "170309.643000", "170309.646000", "170309.649000", "170309.652000", "170309.655000", "170309.658000", "170309.661000", "170309.664000", "170309.667000", "170309.670000", "170309.673000", "170309.676000", "170309.679000", "170309.682000", "170309.685000", "170309.688000", "170309.691000", "170309.694000", "170309.697000", "170309.700000", "170309.703000", "170309.705000", "170309.708000", "170309.711000", "170309.714000", "170309.722000", "170309.725000", "170309.728000", "170309.731000", "170309.734000", "170309.737000", "170309.740000", "170309.743000", "170309.746000", "170309.749000", "170309.752000", "170309.755000", "170309.758000", "170309.761000", "170329.574000", "170329.577000", "170329.580000", "170329.584000", "170329.586000", "170329.589000", "170329.592000", "170329.595000", "170329.598000", "170329.601000", "170329.604000", "170329.607000", "170329.610000", "170329.613000", "170329.616000", "170329.619000", "170329.622000", "170329.625000", "170329.628000", "170329.631000", "170329.634000", "170329.637000", "170329.640000", "170329.643000", "170329.646000", "170329.649000", "170329.652000", "170329.655000", "170349.574000", "170349.577000", "170349.580000", "170349.583000", "170349.586000", "170349.589000", "170349.592000", "170349.595000", "170349.598000", "170349.601000", "170349.604000", "170349.607000", "170349.610000", "170349.613000", "170349.616000", "170349.619000", "170349.622000", "170349.625000", "170349.628000", "170349.631000", "170349.634000", "170349.637000", "170349.640000", "170349.643000", "170349.646000", "170349.649000", "170349.652000", "170349.655000", "170409.574000", "170409.577000", "170409.580000", "170409.583000", "170409.586000", "170409.589000", "170409.592000", "170409.595000", "170409.598000", "170409.610000", "170409.613000", "170409.616000", "170409.619000", "170409.622000", "170409.625000", "170409.628000", "170409.631000", "170409.634000", "170409.637000", "170409.640000", "170409.643000", "170409.646000", "170409.649000", "170409.652000", "170409.655000", "170409.658000", "170409.661000", "170409.664000", "170429.574000", "170429.577000", "170429.580000", "170429.584000", "170429.594000", "170429.597000", "170429.600000", "170429.603000", "170429.606000", "170429.609000", "170429.612000", "170429.615000", "170429.618000", "170429.621000", "170429.624000", "170429.627000", "170429.630000", "170429.633000", "170429.636000", "170429.639000", "170429.642000", "170429.645000", "170429.648000", "170429.651000", "170429.654000", "170429.657000", "170429.660000", "170429.663000", "170429.666000", "170449.573000", "170449.576000", "170449.579000", "170449.582000", "170449.585000", "170449.588000", "170449.591000", "170449.594000", "170449.597000", "170449.607000", "170449.610000", "170449.613000", "170449.616000", "170449.619000", "170449.622000", "170449.625000", "170449.628000", "170449.631000", "170449.634000", "170449.637000", "170449.640000", "170449.643000", "170449.646000", "170449.649000", "170449.652000", "170449.655000", "170449.658000", "170449.661000", "170509.574000", "170509.577000", "170509.580000", "170509.583000", "170509.586000", "170509.589000", "170509.592000", "170509.595000", "170509.598000", "170509.601000", "170509.604000", "170509.607000", "170509.610000", "170509.613000", "170509.616000", "170509.619000", "170509.622000", "170509.625000", "170509.628000", "170509.631000", "170529.574000", "170529.577000", "170529.580000", "170529.583000", "170529.586000", "170529.589000", "170529.592000", "170529.595000", "170529.598000", "170529.601000", "170529.604000", "170529.607000", "170529.610000", "170529.613000", "170529.616000", "170529.619000", "170529.622000", "170529.625000", "170529.628000", "170529.631000", "170549.574000", "170549.577000", "170549.580000", "170549.583000", "170549.586000", "170549.589000", "170549.592000", "170549.596000", "170549.599000", "170549.602000", "170549.605000", "170549.607000", "170549.610000", "170549.613000", "170549.616000", "170549.619000", "170549.622000", "170549.625000", "170549.628000", "170549.631000", "170604.702000", "170604.705000", "170604.708000", "170604.711000", "170604.714000", "170604.717000", "170604.720000", "170604.723000", "170604.726000", "170604.729000", "170604.732000", "170604.736000", "170604.739000", "170604.742000", "170604.745000", "170604.748000"],
      "InstanceCreationTime": ["170309.606000", "170309.615000", "170309.618000", "170309.621000", "170309.624000", "170309.627000", "170309.637000", "170309.640000", "170309.643000", "170309.646000", "170309.649000", "170309.652000", "170309.655000", "170309.658000", "170309.661000", "170309.664000", "170309.667000", "170309.670000", "170309.673000", "170309.676000", "170309.679000", "170309.682000", "170309.685000", "170309.688000", "170309.691000", "170309.694000", "170309.697000", "170309.700000", "170309.703000", "170309.705000", "170309.708000", "170309.711000", "170309.714000", "170309.722000", "170309.725000", "170309.728000", "170309.731000", "170309.734000", "170309.737000", "170309.740000", "170309.743000", "170309.746000", "170309.749000", "170309.752000", "170309.755000", "170309.758000", "170309.761000", "170329.574000", "170329.577000", "170329.580000", "170329.584000", "170329.586000", "170329.589000", "170329.592000", "170329.595000", "170329.598000", "170329.601000", "170329.604000", "170329.607000", "170329.610000", "170329.613000", "170329.616000", "170329.619000", "170329.622000", "170329.625000", "170329.628000", "170329.631000", "170329.634000", "170329.637000", "170329.640000", "170329.643000", "170329.646000", "170329.649000", "170329.652000", "170329.655000", "170349.574000", "170349.577000", "170349.580000", "170349.583000", "170349.586000", "170349.589000", "170349.592000", "170349.595000", "170349.598000", "170349.601000", "170349.604000", "170349.607000", "170349.610000", "170349.613000", "170349.616000", "170349.619000", "170349.622000", "170349.625000", "170349.628000", "170349.631000", "170349.634000", "170349.637000", "170349.640000", "170349.643000", "170349.646000", "170349.649000", "170349.652000", "170349.655000", "170409.574000", "170409.577000", "170409.580000", "170409.583000", "170409.586000", "170409.589000", "170409.592000", "170409.595000", "170409.598000", "170409.610000", "170409.613000", "170409.616000", "170409.619000", "170409.622000", "170409.625000", "170409.628000", "170409.631000", "170409.634000", "170409.637000", "170409.640000", "170409.643000", "170409.646000", "170409.649000", "170409.652000", "170409.655000", "170409.658000", "170409.661000", "170409.664000", "170429.574000", "170429.577000", "170429.580000", "170429.584000", "170429.594000", "170429.597000", "170429.600000", "170429.603000", "170429.606000", "170429.609000", "170429.612000", "170429.615000", "170429.618000", "170429.621000", "170429.624000", "170429.627000", "170429.630000", "170429.633000", "170429.636000", "170429.639000", "170429.642000", "170429.645000", "170429.648000", "170429.651000", "170429.654000", "170429.657000", "170429.660000", "170429.663000", "170429.666000", "170449.573000", "170449.576000", "170449.579000", "170449.582000", "170449.585000", "170449.588000", "170449.591000", "170449.594000", "170449.597000", "170449.607000", "170449.610000", "170449.613000", "170449.616000", "170449.619000", "170449.622000", "170449.625000", "170449.628000", "170449.631000", "170449.634000", "170449.637000", "170449.640000", "170449.643000", "170449.646000", "170449.649000", "170449.652000", "170449.655000", "170449.658000", "170449.661000", "170509.574000", "170509.577000", "170509.580000", "170509.583000", "170509.586000", "170509.589000", "170509.592000", "170509.595000", "170509.598000", "170509.601000", "170509.604000", "170509.607000", "170509.610000", "170509.613000", "170509.616000", "170509.619000", "170509.622000", "170509.625000", "170509.628000", "170509.631000", "170529.574000", "170529.577000", "170529.580000", "170529.583000", "170529.586000", "170529.589000", "170529.592000", "170529.595000", "170529.598000", "170529.601000", "170529.604000", "170529.607000", "170529.610000", "170529.613000", "170529.616000", "170529.619000", "170529.622000", "170529.625000", "170529.628000", "170529.631000", "170549.574000", "170549.577000", "170549.580000", "170549.583000", "170549.586000", "170549.589000", "170549.592000", "170549.596000", "170549.599000", "170549.602000", "170549.605000", "170549.607000", "170549.610000", "170549.613000", "170549.616000", "170549.619000", "170549.622000", "170549.625000", "170549.628000", "170549.631000", "170604.702000", "170604.705000", "170604.708000", "170604.711000", "170604.714000", "170604.717000", "170604.720000", "170604.723000", "170604.726000", "170604.729000", "170604.732000", "170604.736000", "170604.739000", "170604.742000", "170604.745000", "170604.748000"],
      "InstanceNumber": [1, 2, 3, 4, 5, 6, 7, 8, 9, 10, 11, 12, 13, 14, 15, 16, 17, 18, 19, 20, 21, 22, 23, 24, 25, 26, 27, 28, 29, 30, 31, 32, 33, 34, 35, 36, 37, 38, 39, 40, 41, 42, 43, 44, 45, 46, 47, 48, 49, 50, 51, 52, 53, 54, 55, 56, 57, 58, 59, 60, 61, 62, 63, 64, 65, 66, 67, 68, 69, 70, 71, 72, 73, 74, 75, 76, 77, 78, 79, 80, 81, 82, 83, 84, 85, 86, 87, 88, 89, 90, 91, 92, 93, 94, 95, 96, 97, 98, 99, 100, 101, 102, 103, 104, 105, 106, 107, 108, 109, 110, 111, 112, 113, 114, 115, 116, 117, 118, 119, 120, 121, 122, 123, 124, 125, 126, 127, 128, 129, 130, 131, 132, 133, 134, 135, 136, 137, 138, 139, 140, 141, 142, 143, 144, 145, 146, 147, 148, 149, 150, 151, 152, 153, 154, 155, 156, 157, 158, 159, 160, 161, 162, 163, 164, 165, 166, 167, 168, 169, 170, 171, 172, 173, 174, 175, 176, 177, 178, 179, 180, 181, 182, 183, 184, 185, 186, 187, 188, 189, 190, 191, 192, 193, 194, 195, 196, 197, 198, 199, 200, 201, 202, 203, 204, 205, 206, 207, 208, 209, 210, 211, 212, 213, 214, 215, 216, 217, 218, 219, 220, 221, 222, 223, 224, 225, 226, 227, 228, 229, 230, 231, 232, 233, 234, 235, 236, 237, 238, 239, 240, 241, 242, 243, 244, 245, 246, 247, 248, 249, 250, 251, 252, 253, 254, 255, 256, 257, 258, 259, 260, 261, 262, 263, 264],
      "LargestImagePixelValue": [36198, 35287, 35121, 35173, 34566, 34514, 34577, 34517, 34344, 34625, 34352, 34404, 34781, 34616, 34506, 34364, 34366, 34527, 34837, 34210, 34400, 34205, 34107, 34817, 33717, 34285, 34195, 34651, 34625, 34185, 34513, 34963, 34848, 34826, 34382, 34775, 34603, 34318, 34617, 34304, 34204, 34704, 35200, 34540, 34561, 34633, 34605, 34571, 34593, 34498, 34482, 34467, 34595, 34109, 34667, 34605, 35048, 34521, 34787, 34062, 34222, 34599, 34653, 34569, 34293, 34202, 34217, 34074, 34147, 34524, 34601, 34942, 34764, 34702, 34409, 35081, 34530, 34616, 34646, 34611, 34982, 34702, 34675, 35095, 34836, 34808, 34684, 34225, 34245, 34189, 34348, 34926, 34949, 35080, 34856, 35272, 34822, 35009, 34787, 34668, 34603, 34614, 34450, 34284, 35019, 34918, 34745, 34875, 34436, 34665, 34391, 34299, 34292, 33878, 34398, 34035, 34216, 34411, 34412, 34546, 34526, 34442, 34739, 34942, 35351, 34987, 34814, 34880, 34673, 34589, 34713, 34911, 34317, 34846, 35034, 34513, 34798, 34886, 34382, 34983, 34550, 34408, 34716, 34491, 34760, 35085, 35062, 34506, 34044, 34260, 34951, 34745, 34246, 34681, 34197, 34533, 34153, 33899, 34296, 34379, 33866, 34239, 34725, 34585, 34747, 34276, 34579, 34412, 34388, 34687, 34253, 33948, 34458, 34322, 34699, 34283, 34116, 34788, 34976, 34389, 34132, 34364, 34017, 34536, 34713, 34267, 34039, 33909, 33929, 33941, 34044, 33761, 33981, 34241, 34113, 33944, 34223, 34099, 34448, 33947, 33823, 34031, 34271, 34050, 34538, 34218, 34082, 34108, 33903, 33950, 34470, 34098, 34710, 34163, 34303, 34681, 34492, 34433, 34489, 34488, 34279, 33973, 33711, 33702, 34008, 33931, 34401, 34364, 34303, 33880, 33845, 34100, 34232, 33740, 34130, 34430, 34331, 34113, 34845, 34251, 34357, 34198, 34298, 34291, 34590, 33842, 34302, 34655, 34591, 34771, 33777, 34512, 33985, 34104, 33698, 33935, 34272, 34269, 33822, 33793, 34409, 33764, 33951, 34394],
      "WindowCenter": [10225.0, 10185.0, 10173.0, 10155.0, 10140.0, 10134.0, 10131.0, 10138.0, 10139.0, 10147.0, 10147.0, 10147.0, 10152.0, 10149.0, 10145.0, 10141.0, 10132.0, 10129.0, 10128.0, 10123.0, 10129.0, 10161.0, 10127.0, 10166.0, 10096.0, 10119.0, 10129.0, 10137.0, 10128.0, 10118.0, 10109.0, 10107.0, 10107.0, 10115.0, 10119.0, 10133.0, 10129.0, 10130.0, 10136.0, 10129.0, 10129.0, 10125.0, 10135.0, 10132.0, 10126.0, 10126.0, 10126.0, 10120.0, 10124.0, 10119.0, 10118.0, 10124.0, 10123.0, 10117.0, 10123.0, 10124.0, 10131.0, 10119.0, 10123.0, 10115.0, 10118.0, 10125.0, 10117.0, 10117.0, 10118.0, 10113.0, 10125.0, 10124.0, 10126.0, 10128.0, 10127.0, 10129.0, 10124.0, 10123.0, 10123.0, 10137.0, 10132.0, 10134.0, 10135.0, 10133.0, 10135.0, 10127.0, 10125.0, 10131.0, 10125.0, 10126.0, 10127.0, 10120.0, 10114.0, 10112.0, 10111.0, 10123.0, 10122.0, 10130.0, 10126.0, 10128.0, 10123.0, 10122.0, 10115.0, 10116.0, 10118.0, 10132.0, 10137.0, 10136.0, 10143.0, 10142.0, 10136.0, 10128.0, 10128.0, 10135.0, 10133.0, 10137.0, 10134.0, 10141.0, 10148.0, 10145.0, 10139.0, 10137.0, 10130.0, 10126.0, 10119.0, 10123.0, 10115.0, 10123.0, 10129.0, 10131.0, 10134.0, 10133.0, 10129.0, 10127.0, 10126.0, 10127.0, 10129.0, 10134.0, 10136.0, 10136.0, 10140.0, 10140.0, 10130.0, 10141.0, 10137.0, 10134.0, 10128.0, 10127.0, 10128.0, 10125.0, 10103.0, 10062.0, 10155.0, 10134.0, 10137.0, 10129.0, 10117.0, 10122.0, 10121.0, 10132.0, 10143.0, 10139.0, 10145.0, 10142.0, 10128.0, 10129.0, 10122.0, 10122.0, 10128.0, 10125.0, 10142.0, 10150.0, 10145.0, 10150.0, 10135.0, 10127.0, 10131.0, 10124.0, 10131.0, 10134.0, 10133.0, 10138.0, 10139.0, 10126.0, 10138.0, 10140.0, 10128.0, 10127.0, 10111.0, 10096.0, 10087.0, 10081.0, 10077.0, 10076.0, 10069.0, 10068.0, 10068.0, 10075.0, 10074.0, 10076.0, 10083.0, 10089.0, 10098.0, 10094.0, 10095.0, 10104.0, 10103.0, 10105.0, 10120.0, 10120.0, 10121.0, 10127.0, 10122.0, 10130.0, 10130.0, 10131.0, 10147.0, 10150.0, 10159.0, 10159.0, 10158.0, 10151.0, 10149.0, 10144.0, 10139.0, 10141.0, 10142.0, 10150.0, 10159.0, 10143.0, 10146.0, 10138.0, 10122.0, 10113.0, 10113.0, 10119.0, 10133.0, 10126.0, 10137.0, 10153.0, 10149.0, 10150.0, 10157.0, 10149.0, 10142.0, 10135.0, 10133.0, 10133.0, 10137.0, 10131.0, 10131.0, 10134.0, 10136.0, 10135.0, 10123.0, 10128.0, 10115.0, 10119.0, 10114.0, 10112.0, 10108.0, 10118.0, 10112.0, 10114.0, 10129.0, 10121.0, 10127.0, 10122.0],
      "WindowWidth": [21845.0, 21753.0, 21720.0, 21682.0, 21649.0, 21634.0, 21626.0, 21636.0, 21638.0, 21654.0, 21654.0, 21654.0, 21665.0, 21660.0, 21648.0, 21643.0, 21622.0, 21613.0, 21611.0, 21604.0, 21618.0, 21691.0, 21621.0, 21697.0, 21549.0, 21596.0, 21619.0, 21636.0, 21616.0, 21589.0, 21569.0, 21565.0, 21568.0, 21584.0, 21597.0, 21627.0, 21623.0, 21625.0, 21636.0, 21622.0, 21615.0, 21602.0, 21623.0, 21623.0, 21611.0, 21613.0, 21612.0, 21600.0, 21606.0, 21596.0, 21595.0, 21604.0, 21603.0, 21590.0, 21602.0, 21606.0, 21620.0, 21599.0, 21606.0, 21593.0, 21597.0, 21610.0, 21593.0, 21593.0, 21598.0, 21590.0, 21616.0, 21619.0, 21620.0, 21621.0, 21616.0, 21617.0, 21606.0, 21604.0, 21606.0, 21634.0, 21627.0, 21632.0, 21636.0, 21629.0, 21631.0, 21614.0, 21610.0, 21621.0, 21612.0, 21614.0, 21618.0, 21605.0, 21594.0, 21588.0, 21584.0, 21605.0, 21603.0, 21616.0, 21610.0, 21610.0, 21600.0, 21595.0, 21584.0, 21590.0, 21595.0, 21627.0, 21639.0, 21635.0, 21647.0, 21646.0, 21635.0, 21619.0, 21618.0, 21635.0, 21633.0, 21642.0, 21637.0, 21652.0, 21668.0, 21663.0, 21648.0, 21640.0, 21624.0, 21611.0, 21594.0, 21595.0, 21580.0, 21600.0, 21615.0, 21620.0, 21628.0, 21627.0, 21619.0, 21615.0, 21611.0, 21613.0, 21619.0, 21629.0, 21634.0, 21633.0, 21639.0, 21636.0, 21619.0, 21640.0, 21634.0, 21627.0, 21616.0, 21613.0, 21616.0, 21609.0, 21551.0, 21452.0, 21680.0, 21624.0, 21627.0, 21613.0, 21591.0, 21597.0, 21597.0, 21625.0, 21650.0, 21647.0, 21656.0, 21650.0, 21621.0, 21621.0, 21601.0, 21600.0, 21612.0, 21611.0, 21651.0, 21666.0, 21659.0, 21667.0, 21634.0, 21619.0, 21623.0, 21611.0, 21624.0, 21631.0, 21629.0, 21638.0, 21636.0, 21609.0, 21640.0, 21647.0, 21623.0, 21614.0, 21575.0, 21544.0, 21526.0, 21514.0, 21507.0, 21501.0, 21486.0, 21483.0, 21482.0, 21495.0, 21495.0, 21503.0, 21515.0, 21529.0, 21546.0, 21541.0, 21547.0, 21565.0, 21564.0, 21569.0, 21600.0, 21603.0, 21606.0, 21616.0, 21606.0, 21622.0, 21623.0, 21629.0, 21662.0, 21675.0, 21696.0, 21697.0, 21696.0, 21680.0, 21670.0, 21657.0, 21645.0, 21647.0, 21654.0, 21672.0, 21689.0, 21658.0, 21660.0, 21638.0, 21606.0, 21585.0, 21583.0, 21599.0, 21631.0, 21620.0, 21643.0, 21675.0, 21671.0, 21675.0, 21688.0, 21674.0, 21659.0, 21642.0, 21638.0, 21637.0, 21643.0, 21631.0, 21630.0, 21636.0, 21638.0, 21636.0, 21612.0, 21616.0, 21589.0, 21593.0, 21582.0, 21578.0, 21568.0, 21587.0, 21579.0, 21586.0, 21615.0, 21600.0, 21613.0, 21602.0]
    },
    "slices": {}
  }
}