{
  "AcquisitionMatrixPE": 104,
  "AcquisitionNumber": 1,
  "AcquisitionTime": "16:42:29.477500",
  "BandwidthPerPixelPhaseEncode": 16.578,
  "BaseResolution": 104,
  "BodyPartExamined": "BRAIN",
  "ConsistencyInfo": "N4_VE11C_LATEST_20160120",
  "ConversionSoftware": "dcm2niix",
  "ConversionSoftwareVersion": "v1.0.20190410  GCC6.3.0",
  "DerivedVendorReportedEchoSpacing": 0.000580009,
  "DeviceSerialNumber": "166018",
  "DwellTime": 2.1e-06,
  "EchoTime": 0.037,
  "EchoTrainLength": 104,
  "EffectiveEchoSpacing": 0.000580009,
  "FlipAngle": 68,
  "ImageComments": "Unaliased_MB6_PE3_LB",
  "ImageOrientationPatientDICOM": [0.997147, 0.0640549, 0.0399402, -0.0571459, 0.986256, -0.155025],
  "ImageType": [
    "ORIGINAL",
    "PRIMARY",
    "M",
    "MB",
    "ND",
    "MOSAIC"
],
  "ImagingFrequency": 123.191,
  "InPlanePhaseEncodingDirectionDICOM": "COL",
  "InstitutionAddress": "Washington_Place_6_NYC_NYC_US_10003",
  "InstitutionName": "NYU_Center_for_Brain_Imaging",
  "InstitutionalDepartmentName": "Department",
  "MRAcquisitionType": "2D",
  "MagneticFieldStrength": 3,
  "Manufacturer": "Siemens",
  "ManufacturersModelName": "Prisma",
  "Modality": "MR",
  "MultibandAccelerationFactor": 6,
  "PartialFourier": 1,
  "PatientPosition": "HFS",
  "PercentPhaseFOV": 100,
  "PhaseEncodingDirection": "j",
  "PhaseEncodingSteps": 104,
  "PhaseResolution": 1,
  "PixelBandwidth": 2290,
  "ProcedureStepDescription": "Investigators_Winawer",
  "ProtocolName": "task-sfprescaled_cmrr_mbepi_s6_2mm_66sl_PA_TR1.0",
  "PulseSequenceDetails": "%CustomerSeq%_cmrr_mbep2d_bold",
  "ReceiveCoilActiveElements": "HC1-7",
  "ReceiveCoilName": "HeadNeck_64",
  "ReconMatrixPE": 104,
  "RepetitionTime": 1,
  "SAR": 0.0664708,
  "ScanOptions": "FS",
  "ScanningSequence": "EP",
  "SequenceName": "epfid2d1_104",
  "SequenceVariant": "SK_SS",
  "SeriesDescription": "task-sfprescaled_cmrr_mbepi_s6_2mm_66sl_PA_TR1.0",
  "SeriesNumber": 16,
  "ShimSetting": [264, -12600, -8425, 335, -5, -74, 39, 12],
  "SliceThickness": 2,
  "SliceTiming": [0, 0.535, 0.0875, 0.6225, 0.1775, 0.7125, 0.2675, 0.8, 0.355, 0.89, 0.445, 0, 0.535, 0.0875, 0.6225, 0.1775, 0.7125, 0.2675, 0.8, 0.355, 0.89, 0.445, 0, 0.535, 0.0875, 0.6225, 0.1775, 0.7125, 0.2675, 0.8, 0.355, 0.89, 0.445, 0, 0.535, 0.0875, 0.6225, 0.1775, 0.7125, 0.2675, 0.8, 0.355, 0.89, 0.445, 0, 0.535, 0.0875, 0.6225, 0.1775, 0.7125, 0.2675, 0.8, 0.355, 0.89, 0.445, 0, 0.535, 0.0875, 0.6225, 0.1775, 0.7125, 0.2675, 0.8, 0.355, 0.89, 0.445],
  "SoftwareVersions": "syngo_MR_E11",
  "SpacingBetweenSlices": 2,
  "StationName": "AWP166018",
  "TaskName": "sfprescaled",
  "TotalReadoutTime": 0.0597409,
  "TxRefAmp": 236.726,
  "WipMemBlock": "32bd58aa-1e03-4493-b29c-db89c4fdd472||Sequence: R016 ve11c/master r/8780670; Nov 27 2017 15:05:12 by eja",
  "dcmmeta_affine": [
    [-1.9942935705184937, -0.11429180949926376, 0.09864266961812973, 111.95367431640625],
    [-0.12810981273651123, 1.9725128412246704, -0.3045997619628906, -76.19029235839844],
    [0.07988034188747406, 0.31004923582077026, 1.974205732345581, -47.425201416015625],
    [0.0, 0.0, 0.0, 1.0]
],
  "dcmmeta_reorient_transform": [
    [0.0, -1.0, 0.0, 103.0],
    [1.0, 0.0, 0.0, 0.0],
    [0.0, 0.0, 1.0, 0.0],
    [0.0, 0.0, 0.0, 1.0]
],
  "dcmmeta_shape": [104, 104, 66, 264],
  "dcmmeta_slice_dim": 2,
  "dcmmeta_version": 0.6,
  "global": {
    "const": {
      "AccessionNumber": "jtk5gtgt",
  "NumberOfVolumes": 264,
      "AcquisitionMatrix": [104, 0, 0, 104],
      "AngioFlag": "N",
      "BitsAllocated": 16,
      "BitsStored": 16,
      "BodyPartExamined": "BRAIN",
      "Columns": 936,
      "EchoNumbers": 1,
      "EchoTime": 37.0,
      "EchoTrainLength": 104,
      "FlipAngle": 68.0,
      "HighBit": 15,
      "ImageOrientationPatient": [0.99714680537193, 0.06405490928213, 0.03994016942138, -0.0571459040684, 0.98625641391266, -0.1550246163173],
      "ImagePositionPatient": [-882.26237148265, -1000.8375494808, 80.260130398869],
      "ImageType": [
        "ORIGINAL",
        "PRIMARY",
        "M",
        "MB",
        "ND",
        "MOSAIC"
],
      "ImagedNucleus": "1H",
      "ImagingFrequency": 123.190992,
      "InPlanePhaseEncodingDirection": "COL",
      "MRAcquisitionType": "2D",
      "MagneticFieldStrength": 3.0,
      "Manufacturer": "SIEMENS",
      "ManufacturerModelName": "Prisma",
      "Modality": "MR",
      "NumberOfAverages": 1.0,
      "NumberOfPhaseEncodingSteps": 104,
      "PercentPhaseFieldOfView": 100.0,
      "PercentSampling": 100.0,
      "PerformedProcedureStepStartTime": "153949.193000",
      "PhotometricInterpretation": "MONOCHROME2",
      "PixelBandwidth": 2290.0,
      "PixelRepresentation": 0,
      "PixelSpacing": [2.0, 2.0],
      "ProtocolName": "task-sfprescaled_cmrr_mbepi_s6_2mm_66sl_PA_TR1.0",
      "RepetitionTime": 1000.0,
      "Rows": 936,
      "SAR": 0.0664707864145,
      "SamplesPerPixel": 1,
      "ScanOptions": "FS",
      "ScanningSequence": "EP",
      "SequenceName": "epfid2d1_104",
      "SequenceVariant": [
        "SK",
        "SS"
],
      "SeriesDescription": "task-sfprescaled_cmrr_mbepi_s6_2mm_66sl_PA_TR1.0",
      "SeriesNumber": 16,
      "SeriesTime": "164349.529000",
      "SliceLocation": -29.68807552767,
      "SliceThickness": 2.0,
      "SmallestImagePixelValue": 0,
      "SoftwareVersions": "syngo MR E11",
      "SpacingBetweenSlices": 1.9999999650842,
      "SpecificCharacterSet": "ISO_IR 100",
      "StudyID": "1",
      "StudyTime": "153949.133000",
      "TransmitCoilName": "Body",
      "VariableFlipAngleFlag": "N",
      "WindowCenterWidthExplanation": "Algo1",
      "dBdt": 0.0},
    "slices": {}
  },
  "time": {
    "samples": {
      "AcquisitionNumber": [1, 2, 3, 4, 5, 6, 7, 8, 9, 10, 11, 12, 13, 14, 15, 16, 17, 18, 19, 20, 21, 22, 23, 24, 25, 26, 27, 28, 29, 30, 31, 32, 33, 34, 35, 36, 37, 38, 39, 40, 41, 42, 43, 44, 45, 46, 47, 48, 49, 50, 51, 52, 53, 54, 55, 56, 57, 58, 59, 60, 61, 62, 63, 64, 65, 66, 67, 68, 69, 70, 71, 72, 73, 74, 75, 76, 77, 78, 79, 80, 81, 82, 83, 84, 85, 86, 87, 88, 89, 90, 91, 92, 93, 94, 95, 96, 97, 98, 99, 100, 101, 102, 103, 104, 105, 106, 107, 108, 109, 110, 111, 112, 113, 114, 115, 116, 117, 118, 119, 120, 121, 122, 123, 124, 125, 126, 127, 128, 129, 130, 131, 132, 133, 134, 135, 136, 137, 138, 139, 140, 141, 142, 143, 144, 145, 146, 147, 148, 149, 150, 151, 152, 153, 154, 155, 156, 157, 158, 159, 160, 161, 162, 163, 164, 165, 166, 167, 168, 169, 170, 171, 172, 173, 174, 175, 176, 177, 178, 179, 180, 181, 182, 183, 184, 185, 186, 187, 188, 189, 190, 191, 192, 193, 194, 195, 196, 197, 198, 199, 200, 201, 202, 203, 204, 205, 206, 207, 208, 209, 210, 211, 212, 213, 214, 215, 216, 217, 218, 219, 220, 221, 222, 223, 224, 225, 226, 227, 228, 229, 230, 231, 232, 233, 234, 235, 236, 237, 238, 239, 240, 241, 242, 243, 244, 245, 246, 247, 248, 249, 250, 251, 252, 253, 254, 255, 256, 257, 258, 259, 260, 261, 262, 263, 264],
      "AcquisitionTime": ["164229.477500", "164230.477500", "164231.477500", "164232.477500", "164233.477500", "164234.477500", "164235.477500", "164236.477500", "164237.477500", "164238.477500", "164239.477500", "164240.477500", "164241.477500", "164242.477500", "164243.477500", "164244.477500", "164245.477500", "164246.477500", "164247.477500", "164248.477500", "164249.477500", "164250.477500", "164251.477500", "164252.477500", "164253.477500", "164254.477500", "164255.477500", "164256.477500", "164257.477500", "164258.477500", "164259.477500", "164300.477500", "164301.477500", "164302.477500", "164303.477500", "164304.477500", "164305.477500", "164306.477500", "164307.477500", "164308.477500", "164309.477500", "164310.477500", "164311.477500", "164312.477500", "164313.477500", "164314.477500", "164315.477500", "164316.477500", "164317.477500", "164318.477500", "164319.477500", "164320.477500", "164321.477500", "164322.477500", "164323.477500", "164324.477500", "164325.477500", "164326.477500", "164327.477500", "164328.477500", "164329.477500", "164330.477500", "164331.477500", "164332.477500", "164333.477500", "164334.477500", "164335.477500", "164336.477500", "164337.477500", "164338.477500", "164339.477500", "164340.477500", "164341.477500", "164342.477500", "164343.477500", "164344.477500", "164345.477500", "164346.477500", "164347.477500", "164348.477500", "164349.477500", "164350.477500", "164351.477500", "164352.477500", "164353.477500", "164354.477500", "164355.477500", "164356.477500", "164357.477500", "164358.477500", "164359.477500", "164400.477500", "164401.477500", "164402.477500", "164403.477500", "164404.477500", "164405.477500", "164406.477500", "164407.477500", "164408.477500", "164409.477500", "164410.477500", "164411.477500", "164412.477500", "164413.477500", "164414.477500", "164415.477500", "164416.477500", "164417.477500", "164418.477500", "164419.477500", "164420.477500", "164421.477500", "164422.477500", "164423.477500", "164424.477500", "164425.477500", "164426.477500", "164427.477500", "164428.477500", "164429.477500", "164430.477500", "164431.477500", "164432.477500", "164433.477500", "164434.477500", "164435.477500", "164436.477500", "164437.477500", "164438.477500", "164439.477500", "164440.477500", "164441.477500", "164442.477500", "164443.477500", "164444.477500", "164445.477500", "164446.477500", "164447.477500", "164448.477500", "164449.477500", "164450.477500", "164451.477500", "164452.477500", "164453.477500", "164454.477500", "164455.477500", "164456.477500", "164457.477500", "164458.477500", "164459.477500", "164500.477500", "164501.477500", "164502.477500", "164503.477500", "164504.477500", "164505.477500", "164506.477500", "164507.477500", "164508.477500", "164509.477500", "164510.477500", "164511.477500", "164512.477500", "164513.477500", "164514.477500", "164515.477500", "164516.477500", "164517.477500", "164518.477500", "164519.477500", "164520.477500", "164521.477500", "164522.477500", "164523.477500", "164524.477500", "164525.477500", "164526.477500", "164527.477500", "164528.477500", "164529.477500", "164530.477500", "164531.477500", "164532.477500", "164533.477500", "164534.477500", "164535.477500", "164536.477500", "164537.477500", "164538.477500", "164539.477500", "164540.477500", "164541.477500", "164542.477500", "164543.477500", "164544.477500", "164545.477500", "164546.477500", "164547.477500", "164548.477500", "164549.477500", "164550.477500", "164551.477500", "164552.477500", "164553.477500", "164554.477500", "164555.477500", "164556.477500", "164557.477500", "164558.477500", "164559.477500", "164600.477500", "164601.477500", "164602.477500", "164603.477500", "164604.477500", "164605.477500", "164606.477500", "164607.477500", "164608.477500", "164609.477500", "164610.477500", "164611.477500", "164612.477500", "164613.477500", "164614.477500", "164615.477500", "164616.477500", "164617.477500", "164618.477500", "164619.477500", "164620.477500", "164621.477500", "164622.477500", "164623.477500", "164624.477500", "164625.477500", "164626.477500", "164627.477500", "164628.477500", "164629.477500", "164630.477500", "164631.477500", "164632.477500", "164633.477500", "164634.477500", "164635.477500", "164636.477500", "164637.477500", "164638.477500", "164639.477500", "164640.477500", "164641.477500", "164642.477500", "164643.477500", "164644.477500", "164645.477500", "164646.477500", "164647.477500", "164648.477500", "164649.477500", "164650.477500", "164651.477500", "164652.477500"],
      "ContentTime": ["164349.532000", "164349.535000", "164349.577000", "164349.580000", "164349.583000", "164349.586000", "164349.589000", "164349.592000", "164349.595000", "164349.598000", "164349.601000", "164349.604000", "164349.607000", "164349.610000", "164349.613000", "164349.616000", "164349.628000", "164349.631000", "164349.634000", "164349.637000", "164349.640000", "164349.643000", "164349.646000", "164349.649000", "164349.652000", "164349.655000", "164349.658000", "164349.661000", "164349.672000", "164349.675000", "164349.678000", "164349.681000", "164349.684000", "164349.687000", "164349.690000", "164349.692000", "164349.695000", "164349.698000", "164349.701000", "164349.704000", "164349.707000", "164349.710000", "164409.504000", "164409.507000", "164409.510000", "164409.513000", "164409.516000", "164409.519000", "164409.522000", "164409.525000", "164409.528000", "164409.531000", "164409.534000", "164409.547000", "164409.550000", "164409.553000", "164409.556000", "164409.559000", "164409.562000", "164409.565000", "164409.568000", "164409.571000", "164409.574000", "164409.577000", "164409.580000", "164409.583000", "164409.586000", "164409.589000", "164409.592000", "164409.595000", "164409.598000", "164429.505000", "164429.515000", "164429.518000", "164429.521000", "164429.524000", "164429.527000", "164429.529000", "164429.532000", "164429.535000", "164429.538000", "164429.541000", "164429.544000", "164429.547000", "164429.550000", "164429.553000", "164429.556000", "164429.559000", "164429.562000", "164429.565000", "164429.568000", "164429.571000", "164429.574000", "164429.577000", "164429.580000", "164429.583000", "164429.586000", "164429.589000", "164429.592000", "164449.505000", "164449.508000", "164449.511000", "164449.514000", "164449.517000", "164449.520000", "164449.523000", "164449.526000", "164449.529000", "164449.532000", "164449.535000", "164449.538000", "164449.541000", "164449.544000", "164449.547000", "164449.550000", "164449.553000", "164449.556000", "164449.559000", "164449.562000", "164449.565000", "164449.568000", "164449.571000", "164449.574000", "164449.586000", "164449.589000", "164449.597000", "164449.600000", "164509.505000", "164509.508000", "164509.511000", "164509.514000", "164509.517000", "164509.520000", "164509.523000", "164509.526000", "164509.529000", "164509.532000", "164509.535000", "164509.538000", "164509.541000", "164509.544000", "164509.547000", "164509.550000", "164509.553000", "164509.556000", "164509.559000", "164509.562000", "164509.565000", "164509.568000", "164509.571000", "164509.574000", "164509.577000", "164509.580000", "164509.583000", "164509.586000", "164509.589000", "164529.505000", "164529.508000", "164529.511000", "164529.514000", "164529.524000", "164529.527000", "164529.530000", "164529.533000", "164529.536000", "164529.539000", "164529.542000", "164529.545000", "164529.548000", "164529.551000", "164529.554000", "164529.557000", "164529.560000", "164529.563000", "164529.566000", "164529.569000", "164529.572000", "164529.575000", "164529.578000", "164549.505000", "164549.508000", "164549.511000", "164549.514000", "164549.517000", "164549.520000", "164549.523000", "164549.526000", "164549.529000", "164549.532000", "164549.535000", "164549.538000", "164549.541000", "164549.544000", "164549.547000", "164549.550000", "164549.553000", "164549.556000", "164549.559000", "164549.562000", "164609.505000", "164609.508000", "164609.511000", "164609.514000", "164609.517000", "164609.520000", "164609.523000", "164609.526000", "164609.529000", "164609.532000", "164609.535000", "164609.538000", "164609.541000", "164609.544000", "164609.547000", "164609.550000", "164609.553000", "164609.556000", "164609.559000", "164609.562000", "164629.504000", "164629.507000", "164629.510000", "164629.513000", "164629.516000", "164629.519000", "164629.522000", "164629.525000", "164629.528000", "164629.531000", "164629.534000", "164629.537000", "164629.540000", "164629.543000", "164629.546000", "164629.549000", "164629.552000", "164629.555000", "164629.558000", "164629.561000", "164649.505000", "164649.508000", "164649.511000", "164649.514000", "164649.517000", "164649.520000", "164649.523000", "164649.526000", "164649.529000", "164649.532000", "164649.535000", "164649.538000", "164649.541000", "164649.544000", "164649.547000", "164649.550000", "164649.553000", "164649.556000", "164649.559000", "164649.562000", "164654.097000", "164654.100000", "164654.103000", "164654.106000", "164654.109000"],
      "InstanceCreationTime": ["164349.532000", "164349.535000", "164349.577000", "164349.580000", "164349.583000", "164349.586000", "164349.589000", "164349.592000", "164349.595000", "164349.598000", "164349.601000", "164349.604000", "164349.607000", "164349.610000", "164349.613000", "164349.616000", "164349.628000", "164349.631000", "164349.634000", "164349.637000", "164349.640000", "164349.643000", "164349.646000", "164349.649000", "164349.652000", "164349.655000", "164349.658000", "164349.661000", "164349.672000", "164349.675000", "164349.678000", "164349.681000", "164349.684000", "164349.687000", "164349.690000", "164349.692000", "164349.695000", "164349.698000", "164349.701000", "164349.704000", "164349.707000", "164349.710000", "164409.504000", "164409.507000", "164409.510000", "164409.513000", "164409.516000", "164409.519000", "164409.522000", "164409.525000", "164409.528000", "164409.531000", "164409.534000", "164409.547000", "164409.550000", "164409.553000", "164409.556000", "164409.559000", "164409.562000", "164409.565000", "164409.568000", "164409.571000", "164409.574000", "164409.577000", "164409.580000", "164409.583000", "164409.586000", "164409.589000", "164409.592000", "164409.595000", "164409.598000", "164429.505000", "164429.515000", "164429.518000", "164429.521000", "164429.524000", "164429.527000", "164429.529000", "164429.532000", "164429.535000", "164429.538000", "164429.541000", "164429.544000", "164429.547000", "164429.550000", "164429.553000", "164429.556000", "164429.559000", "164429.562000", "164429.565000", "164429.568000", "164429.571000", "164429.574000", "164429.577000", "164429.580000", "164429.583000", "164429.586000", "164429.589000", "164429.592000", "164449.505000", "164449.508000", "164449.511000", "164449.514000", "164449.517000", "164449.520000", "164449.523000", "164449.526000", "164449.529000", "164449.532000", "164449.535000", "164449.538000", "164449.541000", "164449.544000", "164449.547000", "164449.550000", "164449.553000", "164449.556000", "164449.559000", "164449.562000", "164449.565000", "164449.568000", "164449.571000", "164449.574000", "164449.586000", "164449.589000", "164449.597000", "164449.600000", "164509.505000", "164509.508000", "164509.511000", "164509.514000", "164509.517000", "164509.520000", "164509.523000", "164509.526000", "164509.529000", "164509.532000", "164509.535000", "164509.538000", "164509.541000", "164509.544000", "164509.547000", "164509.550000", "164509.553000", "164509.556000", "164509.559000", "164509.562000", "164509.565000", "164509.568000", "164509.571000", "164509.574000", "164509.577000", "164509.580000", "164509.583000", "164509.586000", "164509.589000", "164529.505000", "164529.508000", "164529.511000", "164529.514000", "164529.524000", "164529.527000", "164529.530000", "164529.533000", "164529.536000", "164529.539000", "164529.542000", "164529.545000", "164529.548000", "164529.551000", "164529.554000", "164529.557000", "164529.560000", "164529.563000", "164529.566000", "164529.569000", "164529.572000", "164529.575000", "164529.578000", "164549.505000", "164549.508000", "164549.511000", "164549.514000", "164549.517000", "164549.520000", "164549.523000", "164549.526000", "164549.529000", "164549.532000", "164549.535000", "164549.538000", "164549.541000", "164549.544000", "164549.547000", "164549.550000", "164549.553000", "164549.556000", "164549.559000", "164549.562000", "164609.505000", "164609.508000", "164609.511000", "164609.514000", "164609.517000", "164609.520000", "164609.523000", "164609.526000", "164609.529000", "164609.532000", "164609.535000", "164609.538000", "164609.541000", "164609.544000", "164609.547000", "164609.550000", "164609.553000", "164609.556000", "164609.559000", "164609.562000", "164629.504000", "164629.507000", "164629.510000", "164629.513000", "164629.516000", "164629.519000", "164629.522000", "164629.525000", "164629.528000", "164629.531000", "164629.534000", "164629.537000", "164629.540000", "164629.543000", "164629.546000", "164629.549000", "164629.552000", "164629.555000", "164629.558000", "164629.561000", "164649.505000", "164649.508000", "164649.511000", "164649.514000", "164649.517000", "164649.520000", "164649.523000", "164649.526000", "164649.529000", "164649.532000", "164649.535000", "164649.538000", "164649.541000", "164649.544000", "164649.547000", "164649.550000", "164649.553000", "164649.556000", "164649.559000", "164649.562000", "164654.097000", "164654.100000", "164654.103000", "164654.106000", "164654.109000"],
      "InstanceNumber": [1, 2, 3, 4, 5, 6, 7, 8, 9, 10, 11, 12, 13, 14, 15, 16, 17, 18, 19, 20, 21, 22, 23, 24, 25, 26, 27, 28, 29, 30, 31, 32, 33, 34, 35, 36, 37, 38, 39, 40, 41, 42, 43, 44, 45, 46, 47, 48, 49, 50, 51, 52, 53, 54, 55, 56, 57, 58, 59, 60, 61, 62, 63, 64, 65, 66, 67, 68, 69, 70, 71, 72, 73, 74, 75, 76, 77, 78, 79, 80, 81, 82, 83, 84, 85, 86, 87, 88, 89, 90, 91, 92, 93, 94, 95, 96, 97, 98, 99, 100, 101, 102, 103, 104, 105, 106, 107, 108, 109, 110, 111, 112, 113, 114, 115, 116, 117, 118, 119, 120, 121, 122, 123, 124, 125, 126, 127, 128, 129, 130, 131, 132, 133, 134, 135, 136, 137, 138, 139, 140, 141, 142, 143, 144, 145, 146, 147, 148, 149, 150, 151, 152, 153, 154, 155, 156, 157, 158, 159, 160, 161, 162, 163, 164, 165, 166, 167, 168, 169, 170, 171, 172, 173, 174, 175, 176, 177, 178, 179, 180, 181, 182, 183, 184, 185, 186, 187, 188, 189, 190, 191, 192, 193, 194, 195, 196, 197, 198, 199, 200, 201, 202, 203, 204, 205, 206, 207, 208, 209, 210, 211, 212, 213, 214, 215, 216, 217, 218, 219, 220, 221, 222, 223, 224, 225, 226, 227, 228, 229, 230, 231, 232, 233, 234, 235, 236, 237, 238, 239, 240, 241, 242, 243, 244, 245, 246, 247, 248, 249, 250, 251, 252, 253, 254, 255, 256, 257, 258, 259, 260, 261, 262, 263, 264],
      "LargestImagePixelValue": [38767, 37701, 37267, 37292, 36663, 37032, 35962, 35181, 35967, 35361, 36530, 36400, 36189, 36424, 35428, 35912, 35611, 35755, 36032, 35846, 35341, 35723, 34433, 35181, 34967, 34848, 35477, 34719, 34611, 34576, 33891, 35030, 34801, 34735, 35107, 34177, 34278, 35098, 34201, 34867, 34012, 34886, 34433, 34048, 34955, 33897, 35192, 34344, 33539, 34868, 33798, 34451, 34215, 34685, 34354, 33773, 34605, 34199, 34512, 34492, 33902, 34431, 33935, 34525, 34463, 33814, 35311, 34242, 34758, 34603, 34301, 34661, 34479, 34400, 35015, 33848, 34461, 34184, 34315, 34681, 34377, 35099, 34332, 34391, 34805, 34390, 34730, 34645, 34629, 34189, 34532, 34695, 35116, 34627, 34702, 33873, 34834, 34702, 33756, 34628, 34772, 34578, 34506, 34171, 34676, 34287, 34275, 34949, 34730, 34298, 35168, 34878, 34381, 35512, 34342, 35028, 34890, 34054, 35174, 34952, 34058, 35056, 34494, 34684, 34848, 33879, 34561, 34019, 34494, 35211, 34261, 35817, 34380, 34760, 34978, 34333, 34788, 33829, 35093, 34313, 34412, 34393, 34663, 34921, 34834, 35451, 35503, 35285, 34931, 35265, 34504, 35250, 34777, 34873, 35971, 34802, 35046, 34842, 35031, 36072, 34788, 35718, 35481, 35247, 34878, 35078, 35841, 34785, 35848, 34615, 35032, 34813, 34649, 34558, 34139, 34976, 34567, 34723, 34833, 34651, 35071, 34606, 34913, 34722, 34456, 34596, 34261, 35202, 34650, 35287, 34638, 34628, 34814, 34518, 34786, 34271, 34732, 34753, 33384, 35029, 34272, 34012, 34421, 33949, 34523, 33926, 34943, 35192, 34512, 35051, 34728, 34528, 34551, 34439, 34889, 34743, 35178, 34143, 34584, 34877, 34835, 35932, 36917, 34610, 34336, 34672, 33739, 34569, 34019, 35088, 34245, 35021, 35555, 34442, 35545, 34796, 34334, 34929, 34074, 34764, 35555, 34570, 35968, 34824, 34316, 35191, 33606, 34326, 33994, 34874, 34224, 33735, 34276, 33866, 33876, 34865, 34541, 33944, 34780, 33997, 34245, 35195, 34284, 34768],
      "WindowCenter": [10248.0, 10205.0, 10190.0, 10201.0, 10198.0, 10195.0, 10178.0, 10167.0, 10168.0, 10157.0, 10166.0, 10166.0, 10166.0, 10163.0, 10152.0, 10150.0, 10149.0, 10149.0, 10148.0, 10150.0, 10146.0, 10153.0, 10152.0, 10165.0, 10152.0, 10152.0, 10155.0, 10153.0, 10155.0, 10155.0, 10150.0, 10161.0, 10159.0, 10154.0, 10158.0, 10146.0, 10147.0, 10154.0, 10144.0, 10151.0, 10148.0, 10168.0, 10165.0, 10160.0, 10170.0, 10152.0, 10161.0, 10156.0, 10161.0, 10176.0, 10166.0, 10171.0, 10163.0, 10157.0, 10156.0, 10150.0, 10152.0, 10144.0, 10143.0, 10143.0, 10137.0, 10144.0, 10133.0, 10143.0, 10142.0, 10122.0, 10144.0, 10133.0, 10141.0, 10143.0, 10138.0, 10145.0, 10150.0, 10146.0, 10144.0, 10132.0, 10137.0, 10129.0, 10136.0, 10142.0, 10138.0, 10158.0, 10147.0, 10147.0, 10151.0, 10135.0, 10146.0, 10134.0, 10141.0, 10138.0, 10136.0, 10144.0, 10146.0, 10142.0, 10143.0, 10133.0, 10152.0, 10145.0, 10134.0, 10145.0, 10148.0, 10143.0, 10140.0, 10135.0, 10135.0, 10133.0, 10128.0, 10131.0, 10123.0, 10109.0, 10114.0, 10121.0, 10119.0, 10129.0, 10119.0, 10131.0, 10130.0, 10121.0, 10137.0, 10132.0, 10120.0, 10134.0, 10125.0, 10140.0, 10151.0, 10149.0, 10154.0, 10142.0, 10147.0, 10151.0, 10138.0, 10161.0, 10144.0, 10151.0, 10151.0, 10147.0, 10151.0, 10140.0, 10149.0, 10143.0, 10145.0, 10125.0, 10131.0, 10144.0, 10126.0, 10131.0, 10120.0, 10128.0, 10133.0, 10130.0, 10119.0, 10130.0, 10125.0, 10128.0, 10132.0, 10129.0, 10128.0, 10128.0, 10132.0, 10149.0, 10138.0, 10149.0, 10142.0, 10136.0, 10128.0, 10134.0, 10138.0, 10121.0, 10130.0, 10119.0, 10119.0, 10111.0, 10111.0, 10111.0, 10111.0, 10111.0, 10118.0, 10120.0, 10113.0, 10120.0, 10117.0, 10112.0, 10119.0, 10120.0, 10113.0, 10112.0, 10113.0, 10124.0, 10113.0, 10116.0, 10106.0, 10113.0, 10119.0, 10117.0, 10118.0, 10110.0, 10116.0, 10116.0, 10093.0, 10117.0, 10119.0, 10123.0, 10133.0, 10118.0, 10127.0, 10113.0, 10120.0, 10122.0, 10110.0, 10115.0, 10114.0, 10109.0, 10108.0, 10100.0, 10098.0, 10090.0, 10095.0, 10084.0, 10092.0, 10105.0, 10094.0, 10122.0, 10183.0, 10168.0, 10162.0, 10174.0, 10155.0, 10160.0, 10147.0, 10157.0, 10150.0, 10150.0, 10154.0, 10140.0, 10144.0, 10136.0, 10134.0, 10139.0, 10127.0, 10139.0, 10143.0, 10139.0, 10146.0, 10127.0, 10115.0, 10124.0, 10109.0, 10115.0, 10109.0, 10120.0, 10115.0, 10116.0, 10113.0, 10104.0, 10095.0, 10098.0, 10099.0, 10097.0, 10106.0, 10093.0, 10095.0, 10104.0, 10094.0, 10100.0],
      "WindowWidth": [21882.0, 21779.0, 21743.0, 21767.0, 21761.0, 21753.0, 21719.0, 21695.0, 21695.0, 21673.0, 21686.0, 21689.0, 21689.0, 21680.0, 21658.0, 21653.0, 21651.0, 21651.0, 21647.0, 21657.0, 21653.0, 21668.0, 21670.0, 21697.0, 21670.0, 21666.0, 21672.0, 21674.0, 21679.0, 21681.0, 21670.0, 21691.0, 21685.0, 21675.0, 21680.0, 21659.0, 21657.0, 21667.0, 21647.0, 21664.0, 21665.0, 21704.0, 21705.0, 21695.0, 21711.0, 21677.0, 21690.0, 21685.0, 21695.0, 21723.0, 21705.0, 21712.0, 21695.0, 21682.0, 21682.0, 21668.0, 21667.0, 21651.0, 21647.0, 21647.0, 21637.0, 21653.0, 21630.0, 21644.0, 21640.0, 21598.0, 21640.0, 21624.0, 21643.0, 21653.0, 21644.0, 21657.0, 21666.0, 21656.0, 21652.0, 21626.0, 21634.0, 21617.0, 21628.0, 21644.0, 21641.0, 21679.0, 21662.0, 21659.0, 21662.0, 21628.0, 21647.0, 21625.0, 21643.0, 21641.0, 21634.0, 21650.0, 21653.0, 21644.0, 21649.0, 21635.0, 21671.0, 21660.0, 21639.0, 21654.0, 21657.0, 21645.0, 21639.0, 21631.0, 21632.0, 21628.0, 21615.0, 21618.0, 21602.0, 21571.0, 21578.0, 21599.0, 21599.0, 21613.0, 21597.0, 21617.0, 21616.0, 21601.0, 21629.0, 21622.0, 21595.0, 21615.0, 21603.0, 21637.0, 21670.0, 21666.0, 21675.0, 21651.0, 21659.0, 21667.0, 21639.0, 21683.0, 21653.0, 21663.0, 21667.0, 21657.0, 21665.0, 21642.0, 21658.0, 21650.0, 21654.0, 21613.0, 21624.0, 21646.0, 21601.0, 21609.0, 21590.0, 21607.0, 21617.0, 21608.0, 21587.0, 21608.0, 21603.0, 21612.0, 21621.0, 21617.0, 21613.0, 21616.0, 21625.0, 21657.0, 21636.0, 21656.0, 21639.0, 21629.0, 21607.0, 21617.0, 21626.0, 21595.0, 21612.0, 21591.0, 21589.0, 21573.0, 21573.0, 21571.0, 21574.0, 21578.0, 21591.0, 21596.0, 21582.0, 21593.0, 21582.0, 21574.0, 21591.0, 21597.0, 21581.0, 21580.0, 21582.0, 21601.0, 21582.0, 21583.0, 21567.0, 21583.0, 21593.0, 21588.0, 21589.0, 21573.0, 21580.0, 21580.0, 21538.0, 21586.0, 21598.0, 21607.0, 21626.0, 21596.0, 21608.0, 21579.0, 21591.0, 21596.0, 21574.0, 21584.0, 21581.0, 21572.0, 21570.0, 21549.0, 21544.0, 21530.0, 21535.0, 21516.0, 21532.0, 21558.0, 21537.0, 21603.0, 21728.0, 21701.0, 21689.0, 21716.0, 21678.0, 21686.0, 21661.0, 21677.0, 21667.0, 21664.0, 21670.0, 21638.0, 21644.0, 21632.0, 21627.0, 21638.0, 21613.0, 21635.0, 21643.0, 21635.0, 21644.0, 21603.0, 21581.0, 21598.0, 21575.0, 21587.0, 21577.0, 21597.0, 21592.0, 21590.0, 21582.0, 21560.0, 21537.0, 21540.0, 21547.0, 21544.0, 21561.0, 21532.0, 21539.0, 21555.0, 21536.0, 21546.0]
    },
    "slices": {}
  }
}