{
  "AcquisitionMatrixPE": 104,
  "AcquisitionNumber": 1,
  "AcquisitionTime": "10:43:16.492500",
  "BandwidthPerPixelPhaseEncode": 16.578,
  "BaseResolution": 104,
  "BodyPartExamined": "BRAIN",
  "ConsistencyInfo": "N4_VE11C_LATEST_20160120",
  "ConversionSoftware": "dcm2niix",
  "ConversionSoftwareVersion": "v1.0.20190410  GCC6.3.0",
  "DerivedVendorReportedEchoSpacing": 0.000580009,
  "DeviceSerialNumber": "166018",
  "DwellTime": 2.1e-06,
  "EchoTime": 0.037,
  "EchoTrainLength": 104,
  "EffectiveEchoSpacing": 0.000580009,
  "FlipAngle": 68,
  "ImageComments": "Unaliased_MB6_PE3_LB",
  "ImageOrientationPatientDICOM": [0.995256, 0.0256616, 0.0938485, -0.00903293, 0.984795, -0.173486],
  "ImageType": [
    "ORIGINAL",
    "PRIMARY",
    "M",
    "MB",
    "ND",
    "MOSAIC"
],
  "ImagingFrequency": 123.191,
  "InPlanePhaseEncodingDirectionDICOM": "COL",
  "InstitutionAddress": "Washington_Place_6_NYC_NYC_US_10003",
  "InstitutionName": "NYU_Center_for_Brain_Imaging",
  "InstitutionalDepartmentName": "Department",
  "MRAcquisitionType": "2D",
  "MagneticFieldStrength": 3,
  "Manufacturer": "Siemens",
  "ManufacturersModelName": "Prisma",
  "Modality": "MR",
  "MultibandAccelerationFactor": 6,
  "PartialFourier": 1,
  "PatientPosition": "HFS",
  "PercentPhaseFOV": 100,
  "PhaseEncodingDirection": "j",
  "PhaseEncodingSteps": 104,
  "PhaseResolution": 1,
  "PixelBandwidth": 2290,
  "ProcedureStepDescription": "Investigators_Winawer",
  "ProtocolName": "task-sfprescaled_cmrr_mbepi_s6_2mm_66sl_PA_TR1.0",
  "PulseSequenceDetails": "%CustomerSeq%_cmrr_mbep2d_bold",
  "ReceiveCoilActiveElements": "HC1-7",
  "ReceiveCoilName": "HeadNeck_64",
  "ReconMatrixPE": 104,
  "RepetitionTime": 1,
  "SAR": 0.0742954,
  "ScanOptions": "FS",
  "ScanningSequence": "EP",
  "SequenceName": "epfid2d1_104",
  "SequenceVariant": "SK_SS",
  "SeriesDescription": "task-sfprescaled_cmrr_mbepi_s6_2mm_66sl_PA_TR1.0",
  "SeriesNumber": 20,
  "ShimSetting": [281, -12603, -8456, 398, -20, -152, -34, 10],
  "SliceThickness": 2,
  "SliceTiming": [0, 0.535, 0.09, 0.625, 0.18, 0.7125, 0.2675, 0.8025, 0.3575, 0.8925, 0.4475, 0, 0.535, 0.09, 0.625, 0.18, 0.7125, 0.2675, 0.8025, 0.3575, 0.8925, 0.4475, 0, 0.535, 0.09, 0.625, 0.18, 0.7125, 0.2675, 0.8025, 0.3575, 0.8925, 0.4475, 0, 0.535, 0.09, 0.625, 0.18, 0.7125, 0.2675, 0.8025, 0.3575, 0.8925, 0.4475, 0, 0.535, 0.09, 0.625, 0.18, 0.7125, 0.2675, 0.8025, 0.3575, 0.8925, 0.4475, 0, 0.535, 0.09, 0.625, 0.18, 0.7125, 0.2675, 0.8025, 0.3575, 0.8925, 0.4475],
  "SoftwareVersions": "syngo_MR_E11",
  "SpacingBetweenSlices": 2,
  "StationName": "AWP166018",
  "TaskName": "sfprescaled",
  "TotalReadoutTime": 0.0597409,
  "TxRefAmp": 214.622,
  "WipMemBlock": "2f353ea8-e44f-4e77-99f6-ac4e68b1d39d||Sequence: R016 ve11c/master r/8780670; Nov 27 2017 15:05:12 by eja",
  "dcmmeta_affine": [
    [-1.990511417388916, -0.01806586980819702, 0.19374698400497437, 105.07337951660156],
    [-0.051323290914297104, 1.9695899486541748, -0.3436298370361328, -70.17562866210938],
    [0.18769706785678864, 0.34697142243385315, 1.9607092142105103, -60.93413162231445],
    [0.0, 0.0, 0.0, 1.0]
],
  "dcmmeta_reorient_transform": [
    [0.0, -1.0, 0.0, 103.0],
    [1.0, 0.0, 0.0, 0.0],
    [0.0, 0.0, 1.0, 0.0],
    [0.0, 0.0, 0.0, 1.0]
],
  "dcmmeta_shape": [104, 104, 66, 264],
  "dcmmeta_slice_dim": 2,
  "dcmmeta_version": 0.6,
  "global": {
    "const": {
      "AccessionNumber": "k5qy39xa",
      "AcquisitionMatrix": [104, 0, 0, 104],
      "AngioFlag": "N",
      "BitsAllocated": 16,
      "BitsStored": 16,
      "BodyPartExamined": "BRAIN",
      "Columns": 936,
      "EchoNumbers": 1,
      "EchoTime": 37.0,
      "EchoTrainLength": 104,
      "FlipAngle": 68.0,
      "HighBit": 15,
      "ImageOrientationPatient": [0.99525571234847, 0.02566164565613, 0.09384853211406, -0.0090329349623, 0.98479496068576, -0.1734857097685],
      "ImagePositionPatient": [-923.74994340339, -973.3920321261, 41.062058135679],
      "ImageType": [
        "ORIGINAL",
        "PRIMARY",
        "M",
        "MB",
        "ND",
        "MOSAIC"
],
      "ImagedNucleus": "1H",
      "ImagingFrequency": 123.19076,
      "InPlanePhaseEncodingDirection": "COL",
      "MRAcquisitionType": "2D",
      "MagneticFieldStrength": 3.0,
      "Manufacturer": "SIEMENS",
      "ManufacturerModelName": "Prisma",
      "Modality": "MR",
      "NumberOfAverages": 1.0,
      "NumberOfPhaseEncodingSteps": 104,
      "PercentPhaseFieldOfView": 100.0,
      "PercentSampling": 100.0,
      "PerformedProcedureStepStartTime": "095915.033000",
      "PhotometricInterpretation": "MONOCHROME2",
      "PixelBandwidth": 2290.0,
      "PixelRepresentation": 0,
      "PixelSpacing": [2.0, 2.0],
      "ProtocolName": "task-sfprescaled_cmrr_mbepi_s6_2mm_66sl_PA_TR1.0",
      "RepetitionTime": 1000.0,
      "Rows": 936,
      "SAR": 0.07429538247977,
      "SamplesPerPixel": 1,
      "ScanOptions": "FS",
      "ScanningSequence": "EP",
      "SequenceName": "epfid2d1_104",
      "SequenceVariant": [
        "SK",
        "SS"
],
      "SeriesDescription": "task-sfprescaled_cmrr_mbepi_s6_2mm_66sl_PA_TR1.0",
      "SeriesNumber": 20,
      "SeriesTime": "104439.254000",
      "SliceLocation": -37.501011027782,
      "SliceThickness": 2.0,
      "SmallestImagePixelValue": 0,
      "SoftwareVersions": "syngo MR E11",
      "SpacingBetweenSlices": 1.999999987338,
      "SpecificCharacterSet": "ISO_IR 100",
      "StudyID": "1",
      "StudyTime": "095914.966000",
      "TransmitCoilName": "Body",
      "VariableFlipAngleFlag": "N",
      "WindowCenterWidthExplanation": "Algo1",
      "dBdt": 0.0},
    "slices": {}
  },
  "time": {
    "samples": {
      "AcquisitionNumber": [1, 2, 3, 4, 5, 6, 7, 8, 9, 10, 11, 12, 13, 14, 15, 16, 17, 18, 19, 20, 21, 22, 23, 24, 25, 26, 27, 28, 29, 30, 31, 32, 33, 34, 35, 36, 37, 38, 39, 40, 41, 42, 43, 44, 45, 46, 47, 48, 49, 50, 51, 52, 53, 54, 55, 56, 57, 58, 59, 60, 61, 62, 63, 64, 65, 66, 67, 68, 69, 70, 71, 72, 73, 74, 75, 76, 77, 78, 79, 80, 81, 82, 83, 84, 85, 86, 87, 88, 89, 90, 91, 92, 93, 94, 95, 96, 97, 98, 99, 100, 101, 102, 103, 104, 105, 106, 107, 108, 109, 110, 111, 112, 113, 114, 115, 116, 117, 118, 119, 120, 121, 122, 123, 124, 125, 126, 127, 128, 129, 130, 131, 132, 133, 134, 135, 136, 137, 138, 139, 140, 141, 142, 143, 144, 145, 146, 147, 148, 149, 150, 151, 152, 153, 154, 155, 156, 157, 158, 159, 160, 161, 162, 163, 164, 165, 166, 167, 168, 169, 170, 171, 172, 173, 174, 175, 176, 177, 178, 179, 180, 181, 182, 183, 184, 185, 186, 187, 188, 189, 190, 191, 192, 193, 194, 195, 196, 197, 198, 199, 200, 201, 202, 203, 204, 205, 206, 207, 208, 209, 210, 211, 212, 213, 214, 215, 216, 217, 218, 219, 220, 221, 222, 223, 224, 225, 226, 227, 228, 229, 230, 231, 232, 233, 234, 235, 236, 237, 238, 239, 240, 241, 242, 243, 244, 245, 246, 247, 248, 249, 250, 251, 252, 253, 254, 255, 256, 257, 258, 259, 260, 261, 262, 263, 264],
      "AcquisitionTime": ["104316.492500", "104317.492500", "104318.492500", "104319.492500", "104320.492500", "104321.492500", "104322.492500", "104323.492500", "104324.492500", "104325.492500", "104326.492500", "104327.492500", "104328.492500", "104329.492500", "104330.492500", "104331.492500", "104332.492500", "104333.492500", "104334.492500", "104335.492500", "104336.492500", "104337.492500", "104338.492500", "104339.492500", "104340.492500", "104341.492500", "104342.492500", "104343.492500", "104344.492500", "104345.492500", "104346.492500", "104347.492500", "104348.492500", "104349.492500", "104350.492500", "104351.492500", "104352.492500", "104353.492500", "104354.492500", "104355.492500", "104356.492500", "104357.492500", "104358.492500", "104359.492500", "104400.492500", "104401.492500", "104402.492500", "104403.492500", "104404.492500", "104405.492500", "104406.492500", "104407.492500", "104408.492500", "104409.492500", "104410.492500", "104411.492500", "104412.492500", "104413.492500", "104414.492500", "104415.492500", "104416.492500", "104417.492500", "104418.492500", "104419.492500", "104420.492500", "104421.492500", "104422.492500", "104423.492500", "104424.492500", "104425.492500", "104426.492500", "104427.492500", "104428.492500", "104429.492500", "104430.492500", "104431.492500", "104432.492500", "104433.492500", "104434.492500", "104435.492500", "104436.492500", "104437.492500", "104438.492500", "104439.492500", "104440.492500", "104441.492500", "104442.492500", "104443.492500", "104444.492500", "104445.492500", "104446.492500", "104447.492500", "104448.492500", "104449.492500", "104450.492500", "104451.492500", "104452.492500", "104453.492500", "104454.492500", "104455.492500", "104456.492500", "104457.492500", "104458.492500", "104459.492500", "104500.492500", "104501.492500", "104502.492500", "104503.492500", "104504.492500", "104505.492500", "104506.492500", "104507.492500", "104508.492500", "104509.492500", "104510.492500", "104511.492500", "104512.492500", "104513.492500", "104514.492500", "104515.492500", "104516.492500", "104517.492500", "104518.492500", "104519.492500", "104520.492500", "104521.492500", "104522.492500", "104523.492500", "104524.492500", "104525.492500", "104526.492500", "104527.492500", "104528.492500", "104529.492500", "104530.492500", "104531.492500", "104532.492500", "104533.492500", "104534.492500", "104535.492500", "104536.492500", "104537.492500", "104538.492500", "104539.492500", "104540.492500", "104541.492500", "104542.492500", "104543.492500", "104544.492500", "104545.492500", "104546.492500", "104547.492500", "104548.492500", "104549.492500", "104550.492500", "104551.492500", "104552.492500", "104553.492500", "104554.492500", "104555.492500", "104556.492500", "104557.492500", "104558.492500", "104559.492500", "104600.492500", "104601.492500", "104602.492500", "104603.492500", "104604.492500", "104605.492500", "104606.492500", "104607.492500", "104608.492500", "104609.492500", "104610.492500", "104611.492500", "104612.492500", "104613.492500", "104614.492500", "104615.492500", "104616.492500", "104617.492500", "104618.492500", "104619.492500", "104620.492500", "104621.492500", "104622.492500", "104623.492500", "104624.492500", "104625.492500", "104626.492500", "104627.492500", "104628.492500", "104629.492500", "104630.492500", "104631.492500", "104632.492500", "104633.492500", "104634.492500", "104635.492500", "104636.492500", "104637.492500", "104638.492500", "104639.492500", "104640.492500", "104641.492500", "104642.492500", "104643.492500", "104644.492500", "104645.492500", "104646.492500", "104647.492500", "104648.492500", "104649.492500", "104650.492500", "104651.492500", "104652.492500", "104653.492500", "104654.492500", "104655.492500", "104656.492500", "104657.492500", "104658.492500", "104659.492500", "104700.492500", "104701.492500", "104702.492500", "104703.492500", "104704.492500", "104705.492500", "104706.492500", "104707.492500", "104708.492500", "104709.492500", "104710.492500", "104711.492500", "104712.492500", "104713.492500", "104714.492500", "104715.492500", "104716.492500", "104717.492500", "104718.492500", "104719.492500", "104720.492500", "104721.492500", "104722.492500", "104723.492500", "104724.492500", "104725.492500", "104726.492500", "104727.492500", "104728.492500", "104729.492500", "104730.492500", "104731.492500", "104732.492500", "104733.492500", "104734.492500", "104735.492500", "104736.492500", "104737.492500", "104738.492500", "104739.492500"],
      "ContentTime": ["104439.257000", "104439.260000", "104439.263000", "104439.266000", "104439.269000", "104439.272000", "104439.275000", "104439.278000", "104439.280000", "104439.283000", "104439.286000", "104439.289000", "104439.292000", "104439.303000", "104439.306000", "104439.309000", "104439.311000", "104439.314000", "104439.317000", "104439.320000", "104439.326000", "104439.329000", "104439.332000", "104439.335000", "104439.338000", "104439.341000", "104439.344000", "104439.348000", "104439.351000", "104439.354000", "104439.357000", "104439.360000", "104439.363000", "104439.366000", "104439.368000", "104439.371000", "104439.374000", "104459.227000", "104459.230000", "104459.233000", "104459.235000", "104459.238000", "104459.241000", "104459.244000", "104459.247000", "104459.250000", "104459.253000", "104459.256000", "104459.258000", "104459.261000", "104459.264000", "104459.267000", "104459.270000", "104459.273000", "104459.276000", "104459.278000", "104459.281000", "104459.284000", "104459.287000", "104459.290000", "104459.293000", "104459.296000", "104459.312000", "104459.315000", "104459.317000", "104459.320000", "104519.227000", "104519.230000", "104519.233000", "104519.236000", "104519.238000", "104519.241000", "104519.244000", "104519.247000", "104519.250000", "104519.253000", "104519.256000", "104519.259000", "104519.261000", "104519.264000", "104519.267000", "104519.270000", "104519.273000", "104519.276000", "104519.278000", "104519.281000", "104519.284000", "104519.287000", "104519.290000", "104519.293000", "104519.296000", "104519.298000", "104519.301000", "104519.304000", "104539.227000", "104539.230000", "104539.242000", "104539.244000", "104539.251000", "104539.254000", "104539.257000", "104539.259000", "104539.262000", "104539.265000", "104539.268000", "104539.271000", "104539.274000", "104539.277000", "104539.279000", "104539.282000", "104539.285000", "104539.288000", "104539.291000", "104539.294000", "104539.297000", "104539.300000", "104539.302000", "104539.305000", "104539.308000", "104539.311000", "104539.314000", "104539.317000", "104559.227000", "104559.240000", "104559.243000", "104559.246000", "104559.249000", "104559.252000", "104559.255000", "104559.258000", "104559.261000", "104559.263000", "104559.266000", "104559.269000", "104559.272000", "104559.275000", "104559.278000", "104559.281000", "104559.284000", "104559.286000", "104559.289000", "104559.292000", "104559.295000", "104559.298000", "104559.301000", "104559.304000", "104559.306000", "104559.309000", "104559.312000", "104559.315000", "104559.318000", "104619.227000", "104619.230000", "104619.233000", "104619.236000", "104619.239000", "104619.241000", "104619.244000", "104619.247000", "104619.250000", "104619.253000", "104619.256000", "104619.259000", "104619.262000", "104619.265000", "104619.268000", "104619.270000", "104619.273000", "104619.276000", "104619.279000", "104619.282000", "104619.285000", "104619.288000", "104619.291000", "104619.293000", "104619.296000", "104619.299000", "104619.302000", "104619.305000", "104639.227000", "104639.230000", "104639.233000", "104639.236000", "104639.239000", "104639.241000", "104639.244000", "104639.247000", "104639.250000", "104639.253000", "104639.256000", "104639.259000", "104639.262000", "104639.265000", "104639.267000", "104639.270000", "104639.273000", "104639.276000", "104639.279000", "104639.282000", "104639.285000", "104639.288000", "104639.290000", "104659.227000", "104659.230000", "104659.233000", "104659.236000", "104659.238000", "104659.241000", "104659.244000", "104659.247000", "104659.250000", "104659.253000", "104659.256000", "104659.259000", "104659.262000", "104659.264000", "104659.267000", "104659.270000", "104659.273000", "104659.276000", "104659.279000", "104659.282000", "104719.227000", "104719.230000", "104719.233000", "104719.236000", "104719.239000", "104719.241000", "104719.244000", "104719.247000", "104719.250000", "104719.253000", "104719.256000", "104719.259000", "104719.262000", "104719.265000", "104719.268000", "104719.270000", "104719.273000", "104719.276000", "104719.279000", "104719.282000", "104739.227000", "104739.230000", "104739.233000", "104739.236000", "104739.239000", "104739.241000", "104739.244000", "104739.252000", "104739.255000", "104739.258000", "104739.261000", "104739.264000", "104739.266000", "104739.269000", "104739.272000", "104739.275000", "104739.278000", "104739.281000", "104739.284000", "104739.287000", "104741.167000", "104741.171000"],
      "InstanceCreationTime": ["104439.257000", "104439.260000", "104439.263000", "104439.266000", "104439.269000", "104439.272000", "104439.275000", "104439.278000", "104439.280000", "104439.283000", "104439.286000", "104439.289000", "104439.292000", "104439.303000", "104439.306000", "104439.309000", "104439.311000", "104439.314000", "104439.317000", "104439.320000", "104439.326000", "104439.329000", "104439.332000", "104439.335000", "104439.338000", "104439.341000", "104439.344000", "104439.348000", "104439.351000", "104439.354000", "104439.357000", "104439.360000", "104439.363000", "104439.366000", "104439.368000", "104439.371000", "104439.374000", "104459.227000", "104459.230000", "104459.233000", "104459.235000", "104459.238000", "104459.241000", "104459.244000", "104459.247000", "104459.250000", "104459.253000", "104459.256000", "104459.258000", "104459.261000", "104459.264000", "104459.267000", "104459.270000", "104459.273000", "104459.276000", "104459.278000", "104459.281000", "104459.284000", "104459.287000", "104459.290000", "104459.293000", "104459.296000", "104459.312000", "104459.315000", "104459.317000", "104459.320000", "104519.227000", "104519.230000", "104519.233000", "104519.236000", "104519.238000", "104519.241000", "104519.244000", "104519.247000", "104519.250000", "104519.253000", "104519.256000", "104519.259000", "104519.261000", "104519.264000", "104519.267000", "104519.270000", "104519.273000", "104519.276000", "104519.278000", "104519.281000", "104519.284000", "104519.287000", "104519.290000", "104519.293000", "104519.296000", "104519.298000", "104519.301000", "104519.304000", "104539.227000", "104539.230000", "104539.242000", "104539.244000", "104539.251000", "104539.254000", "104539.257000", "104539.259000", "104539.262000", "104539.265000", "104539.268000", "104539.271000", "104539.274000", "104539.277000", "104539.279000", "104539.282000", "104539.285000", "104539.288000", "104539.291000", "104539.294000", "104539.297000", "104539.300000", "104539.302000", "104539.305000", "104539.308000", "104539.311000", "104539.314000", "104539.317000", "104559.227000", "104559.240000", "104559.243000", "104559.246000", "104559.249000", "104559.252000", "104559.255000", "104559.258000", "104559.261000", "104559.263000", "104559.266000", "104559.269000", "104559.272000", "104559.275000", "104559.278000", "104559.281000", "104559.284000", "104559.286000", "104559.289000", "104559.292000", "104559.295000", "104559.298000", "104559.301000", "104559.304000", "104559.306000", "104559.309000", "104559.312000", "104559.315000", "104559.318000", "104619.227000", "104619.230000", "104619.233000", "104619.236000", "104619.239000", "104619.241000", "104619.244000", "104619.247000", "104619.250000", "104619.253000", "104619.256000", "104619.259000", "104619.262000", "104619.265000", "104619.268000", "104619.270000", "104619.273000", "104619.276000", "104619.279000", "104619.282000", "104619.285000", "104619.288000", "104619.291000", "104619.293000", "104619.296000", "104619.299000", "104619.302000", "104619.305000", "104639.227000", "104639.230000", "104639.233000", "104639.236000", "104639.239000", "104639.241000", "104639.244000", "104639.247000", "104639.250000", "104639.253000", "104639.256000", "104639.259000", "104639.262000", "104639.265000", "104639.267000", "104639.270000", "104639.273000", "104639.276000", "104639.279000", "104639.282000", "104639.285000", "104639.288000", "104639.290000", "104659.227000", "104659.230000", "104659.233000", "104659.236000", "104659.238000", "104659.241000", "104659.244000", "104659.247000", "104659.250000", "104659.253000", "104659.256000", "104659.259000", "104659.262000", "104659.264000", "104659.267000", "104659.270000", "104659.273000", "104659.276000", "104659.279000", "104659.282000", "104719.227000", "104719.230000", "104719.233000", "104719.236000", "104719.239000", "104719.241000", "104719.244000", "104719.247000", "104719.250000", "104719.253000", "104719.256000", "104719.259000", "104719.262000", "104719.265000", "104719.268000", "104719.270000", "104719.273000", "104719.276000", "104719.279000", "104719.282000", "104739.227000", "104739.230000", "104739.233000", "104739.236000", "104739.239000", "104739.241000", "104739.244000", "104739.252000", "104739.255000", "104739.258000", "104739.261000", "104739.264000", "104739.266000", "104739.269000", "104739.272000", "104739.275000", "104739.278000", "104739.281000", "104739.284000", "104739.287000", "104741.167000", "104741.171000"],
      "InstanceNumber": [1, 2, 3, 4, 5, 6, 7, 8, 9, 10, 11, 12, 13, 14, 15, 16, 17, 18, 19, 20, 21, 22, 23, 24, 25, 26, 27, 28, 29, 30, 31, 32, 33, 34, 35, 36, 37, 38, 39, 40, 41, 42, 43, 44, 45, 46, 47, 48, 49, 50, 51, 52, 53, 54, 55, 56, 57, 58, 59, 60, 61, 62, 63, 64, 65, 66, 67, 68, 69, 70, 71, 72, 73, 74, 75, 76, 77, 78, 79, 80, 81, 82, 83, 84, 85, 86, 87, 88, 89, 90, 91, 92, 93, 94, 95, 96, 97, 98, 99, 100, 101, 102, 103, 104, 105, 106, 107, 108, 109, 110, 111, 112, 113, 114, 115, 116, 117, 118, 119, 120, 121, 122, 123, 124, 125, 126, 127, 128, 129, 130, 131, 132, 133, 134, 135, 136, 137, 138, 139, 140, 141, 142, 143, 144, 145, 146, 147, 148, 149, 150, 151, 152, 153, 154, 155, 156, 157, 158, 159, 160, 161, 162, 163, 164, 165, 166, 167, 168, 169, 170, 171, 172, 173, 174, 175, 176, 177, 178, 179, 180, 181, 182, 183, 184, 185, 186, 187, 188, 189, 190, 191, 192, 193, 194, 195, 196, 197, 198, 199, 200, 201, 202, 203, 204, 205, 206, 207, 208, 209, 210, 211, 212, 213, 214, 215, 216, 217, 218, 219, 220, 221, 222, 223, 224, 225, 226, 227, 228, 229, 230, 231, 232, 233, 234, 235, 236, 237, 238, 239, 240, 241, 242, 243, 244, 245, 246, 247, 248, 249, 250, 251, 252, 253, 254, 255, 256, 257, 258, 259, 260, 261, 262, 263, 264],
      "LargestImagePixelValue": [47246, 46350, 45089, 44232, 44637, 43855, 44264, 44061, 43380, 43346, 43338, 43301, 43503, 43727, 43354, 43068, 43456, 43497, 43774, 42844, 43718, 43032, 43533, 43536, 43338, 43389, 43142, 43858, 43779, 43864, 43423, 43387, 43440, 43073, 43776, 43454, 43222, 43159, 42871, 43333, 43223, 43335, 43167, 43357, 43371, 43473, 43417, 43336, 43104, 43089, 43625, 43274, 43704, 43409, 43230, 43193, 43559, 43221, 43644, 42908, 43450, 43420, 43025, 43428, 43516, 43114, 43262, 43405, 43366, 43373, 43464, 43649, 43342, 43231, 43415, 43567, 43277, 43393, 43036, 43539, 42962, 43278, 43221, 43179, 42696, 42669, 43274, 43363, 42658, 42954, 42553, 43463, 43008, 42986, 42907, 43373, 43110, 43499, 43439, 43144, 43164, 42907, 42663, 43087, 42983, 43019, 43185, 43131, 43341, 43297, 43200, 43254, 43145, 43504, 43801, 43588, 43478, 43337, 43223, 43564, 43148, 43116, 43286, 43122, 43525, 43451, 42860, 43299, 43344, 43549, 43562, 43366, 42759, 43186, 43018, 43078, 43602, 43578, 43218, 43057, 42652, 42990, 42541, 42989, 43531, 43490, 43012, 43114, 43087, 42666, 42620, 42632, 42513, 43048, 42602, 43027, 42774, 42598, 42756, 42621, 43004, 43044, 43025, 42854, 42796, 42941, 42971, 43081, 42785, 43136, 43121, 42568, 42946, 43281, 43184, 42906, 43146, 42699, 42565, 42899, 42589, 42961, 43028, 42684, 42651, 42563, 42785, 42622, 42694, 42562, 42937, 42843, 42867, 42889, 42467, 42749, 43440, 42946, 43033, 42650, 42989, 43038, 42971, 42979, 42822, 43055, 42929, 42694, 42853, 42814, 43189, 43092, 42740, 42998, 42858, 42743, 43107, 42540, 42788, 42343, 42732, 42623, 42254, 42894, 42845, 42858, 42825, 43091, 43038, 42783, 43124, 42817, 42888, 42846, 43250, 43168, 43004, 42820, 43487, 42609, 42638, 42817, 42931, 42432, 42541, 42741, 42681, 42681, 42611, 42710, 42685, 42875, 41986, 42237, 42584, 42803, 42556, 42323, 42455, 42482, 42622, 42603, 42398, 42769],
      "WindowCenter": [10657.0, 10629.0, 10603.0, 10589.0, 10591.0, 10587.0, 10586.0, 10579.0, 10572.0, 10565.0, 10558.0, 10556.0, 10570.0, 10582.0, 10573.0, 10568.0, 10565.0, 10557.0, 10555.0, 10544.0, 10545.0, 10532.0, 10536.0, 10537.0, 10537.0, 10536.0, 10536.0, 10548.0, 10548.0, 10549.0, 10552.0, 10551.0, 10550.0, 10543.0, 10544.0, 10543.0, 10546.0, 10563.0, 10567.0, 10573.0, 10568.0, 10565.0, 10557.0, 10549.0, 10553.0, 10558.0, 10561.0, 10569.0, 10573.0, 10579.0, 10574.0, 10566.0, 10569.0, 10557.0, 10556.0, 10557.0, 10562.0, 10555.0, 10552.0, 10542.0, 10538.0, 10543.0, 10540.0, 10551.0, 10561.0, 10564.0, 10575.0, 10580.0, 10582.0, 10579.0, 10570.0, 10561.0, 10547.0, 10545.0, 10551.0, 10552.0, 10553.0, 10551.0, 10548.0, 10545.0, 10531.0, 10527.0, 10519.0, 10511.0, 10513.0, 10523.0, 10537.0, 10552.0, 10544.0, 10548.0, 10537.0, 10539.0, 10533.0, 10538.0, 10539.0, 10544.0, 10551.0, 10559.0, 10559.0, 10557.0, 10557.0, 10555.0, 10545.0, 10546.0, 10541.0, 10548.0, 10552.0, 10548.0, 10548.0, 10546.0, 10544.0, 10545.0, 10545.0, 10555.0, 10557.0, 10564.0, 10569.0, 10571.0, 10569.0, 10570.0, 10563.0, 10555.0, 10547.0, 10546.0, 10542.0, 10550.0, 10554.0, 10563.0, 10571.0, 10574.0, 10570.0, 10563.0, 10549.0, 10548.0, 10541.0, 10538.0, 10544.0, 10545.0, 10549.0, 10557.0, 10553.0, 10553.0, 10550.0, 10541.0, 10538.0, 10529.0, 10523.0, 10528.0, 10535.0, 10540.0, 10556.0, 10560.0, 10560.0, 10560.0, 10553.0, 10549.0, 10541.0, 10532.0, 10523.0, 10516.0, 10514.0, 10517.0, 10506.0, 10510.0, 10509.0, 10516.0, 10517.0, 10533.0, 10537.0, 10545.0, 10546.0, 10534.0, 10533.0, 10536.0, 10534.0, 10532.0, 10537.0, 10533.0, 10542.0, 10548.0, 10550.0, 10549.0, 10547.0, 10536.0, 10534.0, 10527.0, 10525.0, 10520.0, 10531.0, 10535.0, 10540.0, 10541.0, 10536.0, 10538.0, 10526.0, 10529.0, 10528.0, 10523.0, 10523.0, 10523.0, 10523.0, 10524.0, 10525.0, 10530.0, 10523.0, 10529.0, 10522.0, 10514.0, 10518.0, 10518.0, 10526.0, 10535.0, 10537.0, 10545.0, 10546.0, 10540.0, 10538.0, 10527.0, 10524.0, 10520.0, 10525.0, 10526.0, 10520.0, 10522.0, 10529.0, 10539.0, 10556.0, 10564.0, 10563.0, 10550.0, 10539.0, 10520.0, 10514.0, 10507.0, 10511.0, 10511.0, 10519.0, 10522.0, 10534.0, 10540.0, 10542.0, 10548.0, 10549.0, 10550.0, 10551.0, 10551.0, 10543.0, 10543.0, 10548.0, 10542.0, 10543.0, 10540.0, 10530.0, 10536.0, 10550.0, 10560.0, 10560.0, 10554.0, 10551.0, 10536.0, 10525.0, 10511.0, 10500.0, 10506.0],
      "WindowWidth": [22927.0, 22839.0, 22769.0, 22732.0, 22731.0, 22722.0, 22718.0, 22701.0, 22684.0, 22667.0, 22649.0, 22647.0, 22679.0, 22707.0, 22689.0, 22674.0, 22665.0, 22648.0, 22641.0, 22616.0, 22613.0, 22586.0, 22592.0, 22593.0, 22595.0, 22592.0, 22594.0, 22619.0, 22620.0, 22624.0, 22632.0, 22631.0, 22627.0, 22613.0, 22612.0, 22612.0, 22622.0, 22662.0, 22675.0, 22687.0, 22678.0, 22669.0, 22648.0, 22629.0, 22637.0, 22650.0, 22658.0, 22680.0, 22688.0, 22701.0, 22690.0, 22670.0, 22674.0, 22649.0, 22646.0, 22649.0, 22659.0, 22643.0, 22635.0, 22612.0, 22602.0, 22612.0, 22610.0, 22635.0, 22659.0, 22671.0, 22698.0, 22710.0, 22713.0, 22704.0, 22679.0, 22656.0, 22625.0, 22621.0, 22633.0, 22636.0, 22640.0, 22635.0, 22626.0, 22616.0, 22583.0, 22571.0, 22551.0, 22536.0, 22543.0, 22567.0, 22602.0, 22635.0, 22622.0, 22628.0, 22602.0, 22604.0, 22591.0, 22601.0, 22604.0, 22617.0, 22634.0, 22651.0, 22651.0, 22649.0, 22649.0, 22643.0, 22621.0, 22622.0, 22611.0, 22628.0, 22636.0, 22628.0, 22627.0, 22623.0, 22618.0, 22619.0, 22620.0, 22641.0, 22647.0, 22667.0, 22680.0, 22686.0, 22682.0, 22683.0, 22664.0, 22646.0, 22627.0, 22620.0, 22610.0, 22627.0, 22642.0, 22665.0, 22683.0, 22689.0, 22679.0, 22662.0, 22631.0, 22626.0, 22611.0, 22604.0, 22615.0, 22620.0, 22634.0, 22650.0, 22644.0, 22641.0, 22631.0, 22610.0, 22599.0, 22577.0, 22565.0, 22576.0, 22592.0, 22609.0, 22646.0, 22659.0, 22656.0, 22655.0, 22637.0, 22626.0, 22604.0, 22581.0, 22560.0, 22547.0, 22539.0, 22543.0, 22523.0, 22529.0, 22527.0, 22541.0, 22547.0, 22583.0, 22595.0, 22613.0, 22616.0, 22591.0, 22586.0, 22590.0, 22586.0, 22585.0, 22596.0, 22591.0, 22611.0, 22626.0, 22631.0, 22626.0, 22619.0, 22596.0, 22587.0, 22571.0, 22566.0, 22558.0, 22581.0, 22592.0, 22603.0, 22603.0, 22593.0, 22594.0, 22568.0, 22571.0, 22569.0, 22561.0, 22560.0, 22562.0, 22560.0, 22563.0, 22566.0, 22575.0, 22561.0, 22570.0, 22555.0, 22537.0, 22544.0, 22545.0, 22564.0, 22588.0, 22596.0, 22614.0, 22614.0, 22600.0, 22597.0, 22572.0, 22563.0, 22556.0, 22565.0, 22567.0, 22556.0, 22557.0, 22573.0, 22600.0, 22644.0, 22663.0, 22657.0, 22626.0, 22599.0, 22554.0, 22537.0, 22521.0, 22531.0, 22534.0, 22551.0, 22560.0, 22588.0, 22606.0, 22611.0, 22622.0, 22628.0, 22632.0, 22633.0, 22632.0, 22614.0, 22614.0, 22624.0, 22611.0, 22612.0, 22605.0, 22584.0, 22596.0, 22628.0, 22654.0, 22657.0, 22642.0, 22632.0, 22594.0, 22568.0, 22532.0, 22506.0, 22518.0]
    },
    "slices": {}
  },
  "NumberOfVolumes": 264
}