{
  "AcquisitionMatrixPE": 104,
  "AcquisitionNumber": 1,
  "AcquisitionTime": "10:38:23.470000",
  "BandwidthPerPixelPhaseEncode": 16.578,
  "BaseResolution": 104,
  "BodyPartExamined": "BRAIN",
  "ConsistencyInfo": "N4_VE11C_LATEST_20160120",
  "ConversionSoftware": "dcm2niix",
  "ConversionSoftwareVersion": "v1.0.20190410  GCC6.3.0",
  "DerivedVendorReportedEchoSpacing": 0.000580009,
  "DeviceSerialNumber": "166018",
  "DwellTime": 2.1e-06,
  "EchoTime": 0.037,
  "EchoTrainLength": 104,
  "EffectiveEchoSpacing": 0.000580009,
  "FlipAngle": 68,
  "ImageComments": "Unaliased_MB6_PE3_LB",
  "ImageOrientationPatientDICOM": [0.995256, 0.0256616, 0.0938485, -0.00903293, 0.984795, -0.173486],
  "ImageType": [
    "ORIGINAL",
    "PRIMARY",
    "M",
    "MB",
    "ND",
    "MOSAIC"
],
  "ImagingFrequency": 123.191,
  "InPlanePhaseEncodingDirectionDICOM": "COL",
  "InstitutionAddress": "Washington_Place_6_NYC_NYC_US_10003",
  "InstitutionName": "NYU_Center_for_Brain_Imaging",
  "InstitutionalDepartmentName": "Department",
  "MRAcquisitionType": "2D",
  "MagneticFieldStrength": 3,
  "Manufacturer": "Siemens",
  "ManufacturersModelName": "Prisma",
  "Modality": "MR",
  "MultibandAccelerationFactor": 6,
  "PartialFourier": 1,
  "PatientPosition": "HFS",
  "PercentPhaseFOV": 100,
  "PhaseEncodingDirection": "j",
  "PhaseEncodingSteps": 104,
  "PhaseResolution": 1,
  "PixelBandwidth": 2290,
  "ProcedureStepDescription": "Investigators_Winawer",
  "ProtocolName": "task-sfprescaled_cmrr_mbepi_s6_2mm_66sl_PA_TR1.0",
  "PulseSequenceDetails": "%CustomerSeq%_cmrr_mbep2d_bold",
  "ReceiveCoilActiveElements": "HC1-7",
  "ReceiveCoilName": "HeadNeck_64",
  "ReconMatrixPE": 104,
  "RepetitionTime": 1,
  "SAR": 0.0742954,
  "ScanOptions": "FS",
  "ScanningSequence": "EP",
  "SequenceName": "epfid2d1_104",
  "SequenceVariant": "SK_SS",
  "SeriesDescription": "task-sfprescaled_cmrr_mbepi_s6_2mm_66sl_PA_TR1.0",
  "SeriesNumber": 18,
  "ShimSetting": [281, -12603, -8456, 398, -20, -152, -34, 10],
  "SliceThickness": 2,
  "SliceTiming": [0, 0.535, 0.09, 0.625, 0.18, 0.7125, 0.2675, 0.8025, 0.3575, 0.8925, 0.4475, 0, 0.535, 0.09, 0.625, 0.18, 0.7125, 0.2675, 0.8025, 0.3575, 0.8925, 0.4475, 0, 0.535, 0.09, 0.625, 0.18, 0.7125, 0.2675, 0.8025, 0.3575, 0.8925, 0.4475, 0, 0.535, 0.09, 0.625, 0.18, 0.7125, 0.2675, 0.8025, 0.3575, 0.8925, 0.4475, 0, 0.535, 0.09, 0.625, 0.18, 0.7125, 0.2675, 0.8025, 0.3575, 0.8925, 0.4475, 0, 0.535, 0.09, 0.625, 0.18, 0.7125, 0.2675, 0.8025, 0.3575, 0.8925, 0.4475],
  "SoftwareVersions": "syngo_MR_E11",
  "SpacingBetweenSlices": 2,
  "StationName": "AWP166018",
  "TaskName": "sfprescaled",
  "TotalReadoutTime": 0.0597409,
  "TxRefAmp": 214.622,
  "WipMemBlock": "2f353ea8-e44f-4e77-99f6-ac4e68b1d39d||Sequence: R016 ve11c/master r/8780670; Nov 27 2017 15:05:12 by eja",
  "dcmmeta_affine": [
    [-1.990511417388916, -0.01806586980819702, 0.19374698400497437, 105.07337951660156],
    [-0.051323290914297104, 1.9695899486541748, -0.3436298370361328, -70.17562866210938],
    [0.18769706785678864, 0.34697142243385315, 1.9607092142105103, -60.93413162231445],
    [0.0, 0.0, 0.0, 1.0]
],
  "dcmmeta_reorient_transform": [
    [0.0, -1.0, 0.0, 103.0],
    [1.0, 0.0, 0.0, 0.0],
    [0.0, 0.0, 1.0, 0.0],
    [0.0, 0.0, 0.0, 1.0]
],
  "dcmmeta_shape": [104, 104, 66, 264],
  "dcmmeta_slice_dim": 2,
  "dcmmeta_version": 0.6,
  "global": {
    "const": {
      "AccessionNumber": "k5qy39xa",
      "AcquisitionMatrix": [104, 0, 0, 104],
      "AngioFlag": "N",
      "BitsAllocated": 16,
      "BitsStored": 16,
      "BodyPartExamined": "BRAIN",
      "Columns": 936,
      "EchoNumbers": 1,
      "EchoTime": 37.0,
      "EchoTrainLength": 104,
      "FlipAngle": 68.0,
      "HighBit": 15,
      "ImageOrientationPatient": [0.99525571234847, 0.02566164565613, 0.09384853211406, -0.0090329349623, 0.98479496068576, -0.1734857097685],
      "ImagePositionPatient": [-923.74994340339, -973.3920321261, 41.062058135679],
      "ImageType": [
        "ORIGINAL",
        "PRIMARY",
        "M",
        "MB",
        "ND",
        "MOSAIC"
],
      "ImagedNucleus": "1H",
      "ImagingFrequency": 123.19076,
      "InPlanePhaseEncodingDirection": "COL",
      "MRAcquisitionType": "2D",
      "MagneticFieldStrength": 3.0,
      "Manufacturer": "SIEMENS",
      "ManufacturerModelName": "Prisma",
      "Modality": "MR",
      "NumberOfAverages": 1.0,
      "NumberOfPhaseEncodingSteps": 104,
      "PercentPhaseFieldOfView": 100.0,
      "PercentSampling": 100.0,
      "PerformedProcedureStepStartTime": "095915.033000",
      "PhotometricInterpretation": "MONOCHROME2",
      "PixelBandwidth": 2290.0,
      "PixelRepresentation": 0,
      "PixelSpacing": [2.0, 2.0],
      "ProtocolName": "task-sfprescaled_cmrr_mbepi_s6_2mm_66sl_PA_TR1.0",
      "RepetitionTime": 1000.0,
      "Rows": 936,
      "SAR": 0.07429538247977,
      "SamplesPerPixel": 1,
      "ScanOptions": "FS",
      "ScanningSequence": "EP",
      "SequenceName": "epfid2d1_104",
      "SequenceVariant": [
        "SK",
        "SS"
],
      "SeriesDescription": "task-sfprescaled_cmrr_mbepi_s6_2mm_66sl_PA_TR1.0",
      "SeriesNumber": 18,
      "SeriesTime": "103939.175000",
      "SliceLocation": -37.501011027782,
      "SliceThickness": 2.0,
      "SmallestImagePixelValue": 0,
      "SoftwareVersions": "syngo MR E11",
      "SpacingBetweenSlices": 1.999999987338,
      "SpecificCharacterSet": "ISO_IR 100",
      "StudyID": "1",
      "StudyTime": "095914.966000",
      "TransmitCoilName": "Body",
      "VariableFlipAngleFlag": "N",
      "WindowCenterWidthExplanation": "Algo1",
      "dBdt": 0.0},
    "slices": {}
  },
  "time": {
    "samples": {
      "AcquisitionNumber": [1, 2, 3, 4, 5, 6, 7, 8, 9, 10, 11, 12, 13, 14, 15, 16, 17, 18, 19, 20, 21, 22, 23, 24, 25, 26, 27, 28, 29, 30, 31, 32, 33, 34, 35, 36, 37, 38, 39, 40, 41, 42, 43, 44, 45, 46, 47, 48, 49, 50, 51, 52, 53, 54, 55, 56, 57, 58, 59, 60, 61, 62, 63, 64, 65, 66, 67, 68, 69, 70, 71, 72, 73, 74, 75, 76, 77, 78, 79, 80, 81, 82, 83, 84, 85, 86, 87, 88, 89, 90, 91, 92, 93, 94, 95, 96, 97, 98, 99, 100, 101, 102, 103, 104, 105, 106, 107, 108, 109, 110, 111, 112, 113, 114, 115, 116, 117, 118, 119, 120, 121, 122, 123, 124, 125, 126, 127, 128, 129, 130, 131, 132, 133, 134, 135, 136, 137, 138, 139, 140, 141, 142, 143, 144, 145, 146, 147, 148, 149, 150, 151, 152, 153, 154, 155, 156, 157, 158, 159, 160, 161, 162, 163, 164, 165, 166, 167, 168, 169, 170, 171, 172, 173, 174, 175, 176, 177, 178, 179, 180, 181, 182, 183, 184, 185, 186, 187, 188, 189, 190, 191, 192, 193, 194, 195, 196, 197, 198, 199, 200, 201, 202, 203, 204, 205, 206, 207, 208, 209, 210, 211, 212, 213, 214, 215, 216, 217, 218, 219, 220, 221, 222, 223, 224, 225, 226, 227, 228, 229, 230, 231, 232, 233, 234, 235, 236, 237, 238, 239, 240, 241, 242, 243, 244, 245, 246, 247, 248, 249, 250, 251, 252, 253, 254, 255, 256, 257, 258, 259, 260, 261, 262, 263, 264],
      "AcquisitionTime": ["103823.470000", "103824.470000", "103825.470000", "103826.470000", "103827.470000", "103828.470000", "103829.470000", "103830.470000", "103831.470000", "103832.470000", "103833.470000", "103834.470000", "103835.470000", "103836.470000", "103837.470000", "103838.470000", "103839.470000", "103840.470000", "103841.470000", "103842.470000", "103843.470000", "103844.470000", "103845.470000", "103846.470000", "103847.470000", "103848.470000", "103849.470000", "103850.470000", "103851.470000", "103852.470000", "103853.470000", "103854.470000", "103855.470000", "103856.470000", "103857.470000", "103858.470000", "103859.470000", "103900.470000", "103901.470000", "103902.470000", "103903.470000", "103904.470000", "103905.470000", "103906.470000", "103907.470000", "103908.470000", "103909.470000", "103910.470000", "103911.470000", "103912.470000", "103913.470000", "103914.470000", "103915.470000", "103916.470000", "103917.470000", "103918.470000", "103919.470000", "103920.470000", "103921.470000", "103922.470000", "103923.470000", "103924.470000", "103925.470000", "103926.470000", "103927.470000", "103928.470000", "103929.470000", "103930.470000", "103931.470000", "103932.470000", "103933.470000", "103934.470000", "103935.470000", "103936.470000", "103937.470000", "103938.470000", "103939.470000", "103940.470000", "103941.470000", "103942.470000", "103943.470000", "103944.470000", "103945.470000", "103946.470000", "103947.470000", "103948.470000", "103949.470000", "103950.470000", "103951.470000", "103952.470000", "103953.470000", "103954.470000", "103955.470000", "103956.470000", "103957.470000", "103958.470000", "103959.470000", "104000.470000", "104001.470000", "104002.470000", "104003.470000", "104004.470000", "104005.470000", "104006.470000", "104007.470000", "104008.470000", "104009.470000", "104010.470000", "104011.470000", "104012.470000", "104013.470000", "104014.470000", "104015.470000", "104016.470000", "104017.470000", "104018.470000", "104019.470000", "104020.470000", "104021.470000", "104022.470000", "104023.470000", "104024.470000", "104025.470000", "104026.470000", "104027.470000", "104028.470000", "104029.470000", "104030.470000", "104031.470000", "104032.470000", "104033.470000", "104034.470000", "104035.470000", "104036.470000", "104037.470000", "104038.470000", "104039.470000", "104040.470000", "104041.470000", "104042.470000", "104043.470000", "104044.470000", "104045.470000", "104046.470000", "104047.470000", "104048.470000", "104049.470000", "104050.470000", "104051.470000", "104052.470000", "104053.470000", "104054.470000", "104055.470000", "104056.470000", "104057.470000", "104058.470000", "104059.470000", "104100.470000", "104101.470000", "104102.470000", "104103.470000", "104104.470000", "104105.470000", "104106.470000", "104107.470000", "104108.470000", "104109.470000", "104110.470000", "104111.470000", "104112.470000", "104113.470000", "104114.470000", "104115.470000", "104116.470000", "104117.470000", "104118.470000", "104119.470000", "104120.470000", "104121.470000", "104122.470000", "104123.470000", "104124.470000", "104125.470000", "104126.470000", "104127.470000", "104128.470000", "104129.470000", "104130.470000", "104131.470000", "104132.470000", "104133.470000", "104134.470000", "104135.470000", "104136.470000", "104137.470000", "104138.470000", "104139.470000", "104140.470000", "104141.470000", "104142.470000", "104143.470000", "104144.470000", "104145.470000", "104146.470000", "104147.470000", "104148.470000", "104149.470000", "104150.470000", "104151.470000", "104152.470000", "104153.470000", "104154.470000", "104155.470000", "104156.470000", "104157.470000", "104158.470000", "104159.470000", "104200.470000", "104201.470000", "104202.470000", "104203.470000", "104204.470000", "104205.470000", "104206.470000", "104207.470000", "104208.470000", "104209.470000", "104210.470000", "104211.470000", "104212.470000", "104213.470000", "104214.470000", "104215.470000", "104216.470000", "104217.470000", "104218.470000", "104219.470000", "104220.470000", "104221.470000", "104222.470000", "104223.470000", "104224.470000", "104225.470000", "104226.470000", "104227.470000", "104228.470000", "104229.470000", "104230.470000", "104231.470000", "104232.470000", "104233.470000", "104234.470000", "104235.470000", "104236.470000", "104237.470000", "104238.470000", "104239.470000", "104240.470000", "104241.470000", "104242.470000", "104243.470000", "104244.470000", "104245.470000", "104246.470000"],
      "ContentTime": ["103939.178000", "103939.181000", "103939.184000", "103939.187000", "103939.190000", "103939.193000", "103939.196000", "103939.199000", "103939.201000", "103939.204000", "103939.207000", "103939.239000", "103939.242000", "103939.244000", "103939.247000", "103939.250000", "103939.253000", "103939.256000", "103939.259000", "103939.262000", "103939.264000", "103939.267000", "103939.270000", "103939.273000", "103939.276000", "103939.279000", "103939.282000", "103939.285000", "103959.150000", "103959.153000", "103959.156000", "103959.158000", "103959.161000", "103959.164000", "103959.167000", "103959.170000", "103959.173000", "103959.176000", "103959.179000", "103959.181000", "103959.184000", "103959.187000", "103959.190000", "103959.193000", "103959.196000", "103959.199000", "103959.202000", "103959.204000", "103959.207000", "103959.210000", "103959.213000", "103959.216000", "103959.219000", "103959.222000", "103959.225000", "103959.228000", "103959.231000", "104019.150000", "104019.153000", "104019.156000", "104019.159000", "104019.162000", "104019.165000", "104019.167000", "104019.170000", "104019.173000", "104019.176000", "104019.179000", "104019.182000", "104019.185000", "104019.187000", "104019.190000", "104019.193000", "104019.196000", "104019.199000", "104019.202000", "104019.205000", "104019.208000", "104019.210000", "104019.213000", "104019.216000", "104019.219000", "104019.222000", "104019.225000", "104019.228000", "104039.150000", "104039.153000", "104039.156000", "104039.159000", "104039.162000", "104039.165000", "104039.167000", "104039.182000", "104039.185000", "104039.187000", "104039.190000", "104039.193000", "104039.196000", "104039.199000", "104039.202000", "104039.205000", "104039.208000", "104039.211000", "104039.213000", "104039.216000", "104039.219000", "104039.222000", "104039.225000", "104039.228000", "104039.231000", "104039.234000", "104039.237000", "104039.239000", "104059.151000", "104059.154000", "104059.157000", "104059.160000", "104059.163000", "104059.165000", "104059.168000", "104059.171000", "104059.174000", "104059.177000", "104059.180000", "104059.183000", "104059.186000", "104059.189000", "104059.192000", "104059.194000", "104059.197000", "104059.200000", "104059.203000", "104059.206000", "104059.209000", "104059.212000", "104059.215000", "104059.217000", "104059.220000", "104059.223000", "104059.226000", "104059.229000", "104119.150000", "104119.153000", "104119.156000", "104119.159000", "104119.162000", "104119.164000", "104119.167000", "104119.170000", "104119.173000", "104119.176000", "104119.179000", "104119.182000", "104119.185000", "104119.188000", "104119.191000", "104119.193000", "104119.196000", "104119.199000", "104119.202000", "104119.205000", "104119.208000", "104119.211000", "104119.214000", "104119.217000", "104119.220000", "104119.222000", "104119.225000", "104119.228000", "104119.231000", "104139.150000", "104139.153000", "104139.156000", "104139.159000", "104139.161000", "104139.164000", "104139.167000", "104139.170000", "104139.173000", "104139.176000", "104139.179000", "104139.182000", "104139.184000", "104139.187000", "104139.190000", "104139.193000", "104139.196000", "104139.199000", "104139.202000", "104139.205000", "104139.208000", "104139.211000", "104139.213000", "104139.216000", "104139.219000", "104159.150000", "104159.153000", "104159.156000", "104159.173000", "104159.176000", "104159.179000", "104159.182000", "104159.185000", "104159.187000", "104159.190000", "104159.193000", "104159.196000", "104159.199000", "104159.202000", "104159.212000", "104159.215000", "104159.218000", "104159.221000", "104159.224000", "104159.227000", "104219.150000", "104219.153000", "104219.156000", "104219.159000", "104219.162000", "104219.165000", "104219.167000", "104219.170000", "104219.173000", "104219.176000", "104219.179000", "104219.182000", "104219.185000", "104219.188000", "104219.191000", "104219.193000", "104219.196000", "104219.199000", "104219.202000", "104219.205000", "104239.150000", "104239.153000", "104239.156000", "104239.159000", "104239.162000", "104239.164000", "104239.167000", "104239.170000", "104239.173000", "104239.176000", "104239.179000", "104239.182000", "104239.185000", "104239.188000", "104239.191000", "104239.194000", "104239.196000", "104239.199000", "104239.202000", "104239.205000", "104248.134000", "104248.137000", "104248.140000", "104248.143000", "104248.146000", "104248.149000", "104248.152000", "104248.155000", "104248.158000"],
      "InstanceCreationTime": ["103939.178000", "103939.181000", "103939.184000", "103939.187000", "103939.190000", "103939.193000", "103939.196000", "103939.199000", "103939.201000", "103939.204000", "103939.207000", "103939.239000", "103939.242000", "103939.244000", "103939.247000", "103939.250000", "103939.253000", "103939.256000", "103939.259000", "103939.262000", "103939.264000", "103939.267000", "103939.270000", "103939.273000", "103939.276000", "103939.279000", "103939.282000", "103939.285000", "103959.150000", "103959.153000", "103959.156000", "103959.158000", "103959.161000", "103959.164000", "103959.167000", "103959.170000", "103959.173000", "103959.176000", "103959.179000", "103959.181000", "103959.184000", "103959.187000", "103959.190000", "103959.193000", "103959.196000", "103959.199000", "103959.202000", "103959.204000", "103959.207000", "103959.210000", "103959.213000", "103959.216000", "103959.219000", "103959.222000", "103959.225000", "103959.228000", "103959.231000", "104019.150000", "104019.153000", "104019.156000", "104019.159000", "104019.162000", "104019.165000", "104019.167000", "104019.170000", "104019.173000", "104019.176000", "104019.179000", "104019.182000", "104019.185000", "104019.187000", "104019.190000", "104019.193000", "104019.196000", "104019.199000", "104019.202000", "104019.205000", "104019.208000", "104019.210000", "104019.213000", "104019.216000", "104019.219000", "104019.222000", "104019.225000", "104019.228000", "104039.150000", "104039.153000", "104039.156000", "104039.159000", "104039.162000", "104039.165000", "104039.167000", "104039.182000", "104039.185000", "104039.187000", "104039.190000", "104039.193000", "104039.196000", "104039.199000", "104039.202000", "104039.205000", "104039.208000", "104039.211000", "104039.213000", "104039.216000", "104039.219000", "104039.222000", "104039.225000", "104039.228000", "104039.231000", "104039.234000", "104039.237000", "104039.239000", "104059.151000", "104059.154000", "104059.157000", "104059.160000", "104059.163000", "104059.165000", "104059.168000", "104059.171000", "104059.174000", "104059.177000", "104059.180000", "104059.183000", "104059.186000", "104059.189000", "104059.192000", "104059.194000", "104059.197000", "104059.200000", "104059.203000", "104059.206000", "104059.209000", "104059.212000", "104059.215000", "104059.217000", "104059.220000", "104059.223000", "104059.226000", "104059.229000", "104119.150000", "104119.153000", "104119.156000", "104119.159000", "104119.162000", "104119.164000", "104119.167000", "104119.170000", "104119.173000", "104119.176000", "104119.179000", "104119.182000", "104119.185000", "104119.188000", "104119.191000", "104119.193000", "104119.196000", "104119.199000", "104119.202000", "104119.205000", "104119.208000", "104119.211000", "104119.214000", "104119.217000", "104119.220000", "104119.222000", "104119.225000", "104119.228000", "104119.231000", "104139.150000", "104139.153000", "104139.156000", "104139.159000", "104139.161000", "104139.164000", "104139.167000", "104139.170000", "104139.173000", "104139.176000", "104139.179000", "104139.182000", "104139.184000", "104139.187000", "104139.190000", "104139.193000", "104139.196000", "104139.199000", "104139.202000", "104139.205000", "104139.208000", "104139.211000", "104139.213000", "104139.216000", "104139.219000", "104159.150000", "104159.153000", "104159.156000", "104159.173000", "104159.176000", "104159.179000", "104159.182000", "104159.185000", "104159.187000", "104159.190000", "104159.193000", "104159.196000", "104159.199000", "104159.202000", "104159.212000", "104159.215000", "104159.218000", "104159.221000", "104159.224000", "104159.227000", "104219.150000", "104219.153000", "104219.156000", "104219.159000", "104219.162000", "104219.165000", "104219.167000", "104219.170000", "104219.173000", "104219.176000", "104219.179000", "104219.182000", "104219.185000", "104219.188000", "104219.191000", "104219.193000", "104219.196000", "104219.199000", "104219.202000", "104219.205000", "104239.150000", "104239.153000", "104239.156000", "104239.159000", "104239.162000", "104239.164000", "104239.167000", "104239.170000", "104239.173000", "104239.176000", "104239.179000", "104239.182000", "104239.185000", "104239.188000", "104239.191000", "104239.194000", "104239.196000", "104239.199000", "104239.202000", "104239.205000", "104248.134000", "104248.137000", "104248.140000", "104248.143000", "104248.146000", "104248.149000", "104248.152000", "104248.155000", "104248.158000"],
      "InstanceNumber": [1, 2, 3, 4, 5, 6, 7, 8, 9, 10, 11, 12, 13, 14, 15, 16, 17, 18, 19, 20, 21, 22, 23, 24, 25, 26, 27, 28, 29, 30, 31, 32, 33, 34, 35, 36, 37, 38, 39, 40, 41, 42, 43, 44, 45, 46, 47, 48, 49, 50, 51, 52, 53, 54, 55, 56, 57, 58, 59, 60, 61, 62, 63, 64, 65, 66, 67, 68, 69, 70, 71, 72, 73, 74, 75, 76, 77, 78, 79, 80, 81, 82, 83, 84, 85, 86, 87, 88, 89, 90, 91, 92, 93, 94, 95, 96, 97, 98, 99, 100, 101, 102, 103, 104, 105, 106, 107, 108, 109, 110, 111, 112, 113, 114, 115, 116, 117, 118, 119, 120, 121, 122, 123, 124, 125, 126, 127, 128, 129, 130, 131, 132, 133, 134, 135, 136, 137, 138, 139, 140, 141, 142, 143, 144, 145, 146, 147, 148, 149, 150, 151, 152, 153, 154, 155, 156, 157, 158, 159, 160, 161, 162, 163, 164, 165, 166, 167, 168, 169, 170, 171, 172, 173, 174, 175, 176, 177, 178, 179, 180, 181, 182, 183, 184, 185, 186, 187, 188, 189, 190, 191, 192, 193, 194, 195, 196, 197, 198, 199, 200, 201, 202, 203, 204, 205, 206, 207, 208, 209, 210, 211, 212, 213, 214, 215, 216, 217, 218, 219, 220, 221, 222, 223, 224, 225, 226, 227, 228, 229, 230, 231, 232, 233, 234, 235, 236, 237, 238, 239, 240, 241, 242, 243, 244, 245, 246, 247, 248, 249, 250, 251, 252, 253, 254, 255, 256, 257, 258, 259, 260, 261, 262, 263, 264],
      "LargestImagePixelValue": [47522, 46042, 45205, 43987, 44292, 44292, 43668, 43986, 43911, 43881, 43789, 43614, 43762, 43402, 43813, 43736, 43720, 43814, 43505, 43497, 43825, 43754, 43137, 43533, 43161, 43599, 43966, 43651, 43638, 43342, 43435, 43722, 43398, 43269, 43279, 43614, 43225, 43383, 43132, 43456, 43375, 43505, 43709, 43447, 43284, 43554, 43315, 43339, 43723, 43274, 43785, 43541, 43654, 43016, 43473, 43325, 43151, 43321, 43314, 43021, 43297, 42885, 43395, 43480, 43135, 43216, 43343, 43120, 42932, 43241, 42643, 43324, 43369, 43086, 43427, 43169, 43416, 43102, 43249, 43511, 43467, 43324, 43077, 42890, 43137, 43160, 42898, 43664, 43259, 43208, 43060, 43106, 43197, 43369, 43507, 42898, 42930, 43445, 42848, 43144, 43368, 42990, 42782, 42801, 42461, 43005, 42867, 42673, 43203, 42908, 43247, 42594, 43055, 42881, 43153, 42720, 42825, 42643, 42713, 42924, 42824, 43033, 43005, 42859, 42832, 42801, 43071, 43162, 42949, 42416, 42363, 42744, 42650, 43235, 42748, 42281, 42484, 42615, 42574, 42162, 43093, 42601, 42058, 43081, 42818, 42576, 42753, 42676, 42917, 42443, 42461, 42723, 42343, 42351, 41954, 41869, 42249, 41858, 42532, 42023, 42371, 42327, 42114, 42529, 41975, 41813, 42203, 42508, 41893, 41986, 42113, 41832, 42366, 42062, 42045, 41902, 41945, 42053, 42617, 42064, 41956, 42286, 42286, 42073, 41896, 42314, 41947, 42156, 42084, 42080, 41687, 42229, 41820, 41836, 41690, 42432, 42359, 42086, 42339, 41473, 42229, 41911, 42011, 42071, 41830, 41933, 42206, 41787, 42048, 41928, 41282, 41828, 41683, 41961, 41954, 42214, 42321, 42434, 42092, 41939, 42030, 42017, 42059, 41672, 41965, 42649, 42354, 42804, 41797, 41905, 41732, 42369, 42259, 42141, 42101, 42111, 41553, 42206, 42117, 41872, 42269, 41735, 41470, 41481, 41612, 42152, 42073, 41611, 41435, 41424, 41471, 41815, 41629, 40832, 41161, 41672, 41437, 41620, 41141, 41464, 41831, 41629, 41418, 41770],
      "WindowCenter": [10603.0, 10566.0, 10551.0, 10561.0, 10589.0, 10601.0, 10601.0, 10601.0, 10597.0, 10577.0, 10570.0, 10562.0, 10562.0, 10578.0, 10596.0, 10604.0, 10600.0, 10597.0, 10582.0, 10570.0, 10555.0, 10551.0, 10540.0, 10557.0, 10568.0, 10578.0, 10583.0, 10577.0, 10569.0, 10562.0, 10553.0, 10549.0, 10549.0, 10551.0, 10560.0, 10582.0, 10601.0, 10617.0, 10621.0, 10620.0, 10606.0, 10596.0, 10585.0, 10571.0, 10570.0, 10575.0, 10575.0, 10576.0, 10582.0, 10579.0, 10582.0, 10590.0, 10594.0, 10591.0, 10595.0, 10591.0, 10590.0, 10586.0, 10581.0, 10581.0, 10585.0, 10586.0, 10587.0, 10586.0, 10588.0, 10594.0, 10596.0, 10598.0, 10591.0, 10587.0, 10582.0, 10585.0, 10585.0, 10585.0, 10585.0, 10586.0, 10592.0, 10582.0, 10586.0, 10587.0, 10586.0, 10580.0, 10573.0, 10567.0, 10566.0, 10571.0, 10571.0, 10572.0, 10573.0, 10571.0, 10572.0, 10573.0, 10573.0, 10584.0, 10585.0, 10576.0, 10571.0, 10571.0, 10559.0, 10556.0, 10547.0, 10540.0, 10541.0, 10547.0, 10559.0, 10573.0, 10574.0, 10568.0, 10564.0, 10543.0, 10545.0, 10532.0, 10535.0, 10538.0, 10551.0, 10548.0, 10553.0, 10556.0, 10557.0, 10571.0, 10586.0, 10594.0, 10597.0, 10590.0, 10580.0, 10565.0, 10562.0, 10557.0, 10545.0, 10546.0, 10542.0, 10552.0, 10549.0, 10558.0, 10553.0, 10544.0, 10553.0, 10548.0, 10554.0, 10550.0, 10559.0, 10561.0, 10553.0, 10574.0, 10577.0, 10581.0, 10583.0, 10592.0, 10605.0, 10605.0, 10595.0, 10589.0, 10567.0, 10557.0, 10550.0, 10558.0, 10572.0, 10574.0, 10575.0, 10569.0, 10570.0, 10559.0, 10556.0, 10547.0, 10539.0, 10540.0, 10541.0, 10552.0, 10551.0, 10545.0, 10542.0, 10535.0, 10531.0, 10524.0, 10526.0, 10534.0, 10550.0, 10560.0, 10567.0, 10570.0, 10572.0, 10587.0, 10596.0, 10599.0, 10592.0, 10580.0, 10564.0, 10553.0, 10543.0, 10543.0, 10547.0, 10564.0, 10569.0, 10571.0, 10564.0, 10565.0, 10552.0, 10537.0, 10541.0, 10544.0, 10558.0, 10563.0, 10564.0, 10569.0, 10563.0, 10555.0, 10552.0, 10539.0, 10536.0, 10542.0, 10545.0, 10565.0, 10566.0, 10579.0, 10582.0, 10584.0, 10577.0, 10570.0, 10560.0, 10560.0, 10569.0, 10584.0, 10589.0, 10589.0, 10586.0, 10582.0, 10568.0, 10569.0, 10553.0, 10553.0, 10554.0, 10564.0, 10567.0, 10561.0, 10558.0, 10551.0, 10545.0, 10542.0, 10548.0, 10551.0, 10556.0, 10568.0, 10584.0, 10588.0, 10594.0, 10593.0, 10579.0, 10571.0, 10570.0, 10568.0, 10568.0, 10575.0, 10578.0, 10580.0, 10581.0, 10581.0, 10575.0, 10565.0, 10565.0, 10571.0, 10577.0, 10573.0, 10568.0, 10566.0],
      "WindowWidth": [22784.0, 22677.0, 22636.0, 22660.0, 22723.0, 22757.0, 22758.0, 22756.0, 22744.0, 22698.0, 22677.0, 22655.0, 22654.0, 22694.0, 22741.0, 22763.0, 22753.0, 22741.0, 22704.0, 22672.0, 22637.0, 22624.0, 22602.0, 22641.0, 22670.0, 22694.0, 22705.0, 22689.0, 22672.0, 22654.0, 22632.0, 22623.0, 22622.0, 22630.0, 22652.0, 22707.0, 22754.0, 22795.0, 22804.0, 22798.0, 22765.0, 22739.0, 22708.0, 22679.0, 22675.0, 22687.0, 22690.0, 22694.0, 22708.0, 22702.0, 22710.0, 22728.0, 22740.0, 22736.0, 22744.0, 22737.0, 22732.0, 22723.0, 22712.0, 22713.0, 22721.0, 22724.0, 22727.0, 22723.0, 22729.0, 22743.0, 22749.0, 22754.0, 22736.0, 22723.0, 22714.0, 22719.0, 22716.0, 22717.0, 22716.0, 22721.0, 22734.0, 22712.0, 22721.0, 22722.0, 22720.0, 22705.0, 22688.0, 22674.0, 22671.0, 22681.0, 22682.0, 22684.0, 22687.0, 22683.0, 22684.0, 22687.0, 22687.0, 22710.0, 22713.0, 22694.0, 22685.0, 22682.0, 22653.0, 22643.0, 22622.0, 22604.0, 22607.0, 22625.0, 22657.0, 22690.0, 22694.0, 22681.0, 22666.0, 22619.0, 22615.0, 22589.0, 22596.0, 22606.0, 22634.0, 22632.0, 22643.0, 22651.0, 22652.0, 22687.0, 22722.0, 22743.0, 22749.0, 22733.0, 22707.0, 22671.0, 22658.0, 22646.0, 22619.0, 22624.0, 22617.0, 22639.0, 22634.0, 22652.0, 22640.0, 22622.0, 22640.0, 22631.0, 22644.0, 22638.0, 22657.0, 22662.0, 22647.0, 22694.0, 22703.0, 22714.0, 22722.0, 22745.0, 22773.0, 22773.0, 22748.0, 22729.0, 22678.0, 22652.0, 22636.0, 22656.0, 22691.0, 22698.0, 22700.0, 22684.0, 22684.0, 22659.0, 22649.0, 22627.0, 22609.0, 22610.0, 22614.0, 22639.0, 22637.0, 22625.0, 22615.0, 22598.0, 22586.0, 22570.0, 22576.0, 22597.0, 22638.0, 22663.0, 22679.0, 22686.0, 22694.0, 22732.0, 22755.0, 22761.0, 22744.0, 22713.0, 22671.0, 22643.0, 22617.0, 22618.0, 22630.0, 22669.0, 22684.0, 22688.0, 22672.0, 22670.0, 22638.0, 22604.0, 22612.0, 22623.0, 22657.0, 22672.0, 22676.0, 22684.0, 22670.0, 22650.0, 22641.0, 22610.0, 22602.0, 22616.0, 22626.0, 22673.0, 22680.0, 22710.0, 22719.0, 22722.0, 22704.0, 22684.0, 22659.0, 22660.0, 22682.0, 22721.0, 22734.0, 22732.0, 22725.0, 22712.0, 22678.0, 22676.0, 22642.0, 22642.0, 22649.0, 22671.0, 22678.0, 22666.0, 22656.0, 22639.0, 22624.0, 22618.0, 22629.0, 22639.0, 22652.0, 22684.0, 22722.0, 22737.0, 22751.0, 22745.0, 22713.0, 22693.0, 22689.0, 22684.0, 22685.0, 22701.0, 22711.0, 22719.0, 22722.0, 22721.0, 22705.0, 22681.0, 22682.0, 22695.0, 22709.0, 22702.0, 22691.0, 22684.0]
    },
    "slices": {}
  },
  "NumberOfVolumes": 264
}