{
  "AcquisitionMatrixPE": 104,
  "AcquisitionNumber": 1,
  "AcquisitionTime": "10:27:49.465000",
  "BandwidthPerPixelPhaseEncode": 16.578,
  "BaseResolution": 104,
  "BodyPartExamined": "BRAIN",
  "ConsistencyInfo": "N4_VE11C_LATEST_20160120",
  "ConversionSoftware": "dcm2niix",
  "ConversionSoftwareVersion": "v1.0.20190410  GCC6.3.0",
  "DerivedVendorReportedEchoSpacing": 0.000580009,
  "DeviceSerialNumber": "166018",
  "DwellTime": 2.1e-06,
  "EchoTime": 0.037,
  "EchoTrainLength": 104,
  "EffectiveEchoSpacing": 0.000580009,
  "FlipAngle": 68,
  "ImageComments": "Unaliased_MB6_PE3_LB",
  "ImageOrientationPatientDICOM": [0.995442, 0.0831316, 0.0467403, -0.0820152, 0.996309, -0.0253203],
  "ImageType": [
    "ORIGINAL",
    "PRIMARY",
    "M",
    "MB",
    "ND",
    "MOSAIC"
],
  "ImagingFrequency": 123.191,
  "InPlanePhaseEncodingDirectionDICOM": "COL",
  "InstitutionAddress": "Washington_Place_6_NYC_NYC_US_10003",
  "InstitutionName": "NYU_Center_for_Brain_Imaging",
  "InstitutionalDepartmentName": "Department",
  "MRAcquisitionType": "2D",
  "MagneticFieldStrength": 3,
  "Manufacturer": "Siemens",
  "ManufacturersModelName": "Prisma",
  "Modality": "MR",
  "MultibandAccelerationFactor": 6,
  "PartialFourier": 1,
  "PatientPosition": "HFS",
  "PercentPhaseFOV": 100,
  "PhaseEncodingDirection": "j",
  "PhaseEncodingSteps": 104,
  "PhaseResolution": 1,
  "PixelBandwidth": 2290,
  "ProcedureStepDescription": "Investigators_Winawer",
  "ProtocolName": "task-sfprescaled_cmrr_mbepi_s6_2mm_66sl_PA_TR1.0",
  "PulseSequenceDetails": "%CustomerSeq%_cmrr_mbep2d_bold",
  "ReceiveCoilActiveElements": "HC1-7",
  "ReceiveCoilName": "HeadNeck_64",
  "ReconMatrixPE": 104,
  "RepetitionTime": 1,
  "SAR": 0.0685127,
  "ScanOptions": "FS",
  "ScanningSequence": "EP",
  "SequenceName": "epfid2d1_104",
  "SequenceVariant": "SK_SS",
  "SeriesDescription": "task-sfprescaled_cmrr_mbepi_s6_2mm_66sl_PA_TR1.0",
  "SeriesNumber": 14,
  "ShimSetting": [277, -12593, -8545, 325, -6, -111, -35, 26],
  "SliceThickness": 2,
  "SliceTiming": [0, 0.535, 0.09, 0.625, 0.1775, 0.7125, 0.2675, 0.8025, 0.3575, 0.89, 0.445, 0, 0.535, 0.09, 0.625, 0.1775, 0.7125, 0.2675, 0.8025, 0.3575, 0.89, 0.445, 0, 0.535, 0.09, 0.625, 0.1775, 0.7125, 0.2675, 0.8025, 0.3575, 0.89, 0.445, 0, 0.535, 0.09, 0.625, 0.1775, 0.7125, 0.2675, 0.8025, 0.3575, 0.89, 0.445, 0, 0.535, 0.09, 0.625, 0.1775, 0.7125, 0.2675, 0.8025, 0.3575, 0.89, 0.445, 0, 0.535, 0.09, 0.625, 0.1775, 0.7125, 0.2675, 0.8025, 0.3575, 0.89, 0.445],
  "SoftwareVersions": "syngo_MR_E11",
  "SpacingBetweenSlices": 2,
  "StationName": "AWP166018",
  "TaskName": "sfprescaled",
  "TotalReadoutTime": 0.0597409,
  "TxRefAmp": 203.092,
  "WipMemBlock": "7de05b99-da33-4cf8-aed5-c1e525a8e42a||Sequence: R016 ve11c/master r/8780670; Nov 27 2017 15:05:12 by eja",
  "dcmmeta_affine": [
    [-1.990883708000183, -0.16403035819530487, 0.09734547138214111, 113.74717712402344],
    [-0.16626325249671936, 1.9926187992095947, -0.04274289309978485, -73.30086517333984],
    [0.09348063915967941, 0.05064055323600769, 1.997172236442566, -41.04076385498047],
    [0.0, 0.0, 0.0, 1.0]
],
  "dcmmeta_reorient_transform": [
    [0.0, -1.0, 0.0, 103.0],
    [1.0, 0.0, 0.0, 0.0],
    [0.0, 0.0, 1.0, 0.0],
    [0.0, 0.0, 0.0, 1.0]
],
  "dcmmeta_shape": [104, 104, 66, 264],
  "dcmmeta_slice_dim": 2,
  "dcmmeta_version": 0.6,
  "global": {
    "const": {
      "AccessionNumber": "jv3y3i0c",
  "NumberOfVolumes": 264,
      "AcquisitionMatrix": [104, 0, 0, 104],
      "AngioFlag": "N",
      "BitsAllocated": 16,
      "BitsStored": 16,
      "BodyPartExamined": "BRAIN",
      "Columns": 936,
      "EchoNumbers": 1,
      "EchoTime": 37.0,
      "EchoTrainLength": 104,
      "FlipAngle": 68.0,
      "HighBit": 15,
      "ImageOrientationPatient": [0.99544184899904, 0.08313162831178, 0.04674032130395, -0.0820151813389, 0.99630938650778, -0.0253202761922],
      "ImagePositionPatient": [-856.82303483909, -1030.0337956389, -53.646265343491],
      "ImageType": [
        "ORIGINAL",
        "PRIMARY",
        "M",
        "MB",
        "ND",
        "MOSAIC"
],
      "ImagedNucleus": "1H",
      "ImagingFrequency": 123.191083,
      "InPlanePhaseEncodingDirection": "COL",
      "MRAcquisitionType": "2D",
      "MagneticFieldStrength": 3.0,
      "Manufacturer": "SIEMENS",
      "ManufacturerModelName": "Prisma",
      "Modality": "MR",
      "NumberOfAverages": 1.0,
      "NumberOfPhaseEncodingSteps": 104,
      "PercentPhaseFieldOfView": 100.0,
      "PercentSampling": 100.0,
      "PerformedProcedureStepStartTime": "100021.887000",
      "PhotometricInterpretation": "MONOCHROME2",
      "PixelBandwidth": 2290.0,
      "PixelRepresentation": 0,
      "PixelSpacing": [2.0, 2.0],
      "ProtocolName": "task-sfprescaled_cmrr_mbepi_s6_2mm_66sl_PA_TR1.0",
      "RepetitionTime": 1000.0,
      "Rows": 936,
      "SAR": 0.06851266208846,
      "SamplesPerPixel": 1,
      "ScanOptions": "FS",
      "ScanningSequence": "EP",
      "SequenceName": "epfid2d1_104",
      "SequenceVariant": [
        "SK",
        "SS"
],
      "SeriesDescription": "task-sfprescaled_cmrr_mbepi_s6_2mm_66sl_PA_TR1.0",
      "SeriesNumber": 14,
      "SeriesTime": "102849.691000",
      "SliceLocation": -33.879805977721,
      "SliceThickness": 2.0,
      "SmallestImagePixelValue": 0,
      "SoftwareVersions": "syngo MR E11",
      "SpacingBetweenSlices": 2.0000000256817,
      "SpecificCharacterSet": "ISO_IR 100",
      "StudyID": "1",
      "StudyTime": "100021.836000",
      "TransmitCoilName": "Body",
      "VariableFlipAngleFlag": "N",
      "WindowCenterWidthExplanation": "Algo1",
      "dBdt": 0.0},
    "slices": {}
  },
  "time": {
    "samples": {
      "AcquisitionNumber": [1, 2, 3, 4, 5, 6, 7, 8, 9, 10, 11, 12, 13, 14, 15, 16, 17, 18, 19, 20, 21, 22, 23, 24, 25, 26, 27, 28, 29, 30, 31, 32, 33, 34, 35, 36, 37, 38, 39, 40, 41, 42, 43, 44, 45, 46, 47, 48, 49, 50, 51, 52, 53, 54, 55, 56, 57, 58, 59, 60, 61, 62, 63, 64, 65, 66, 67, 68, 69, 70, 71, 72, 73, 74, 75, 76, 77, 78, 79, 80, 81, 82, 83, 84, 85, 86, 87, 88, 89, 90, 91, 92, 93, 94, 95, 96, 97, 98, 99, 100, 101, 102, 103, 104, 105, 106, 107, 108, 109, 110, 111, 112, 113, 114, 115, 116, 117, 118, 119, 120, 121, 122, 123, 124, 125, 126, 127, 128, 129, 130, 131, 132, 133, 134, 135, 136, 137, 138, 139, 140, 141, 142, 143, 144, 145, 146, 147, 148, 149, 150, 151, 152, 153, 154, 155, 156, 157, 158, 159, 160, 161, 162, 163, 164, 165, 166, 167, 168, 169, 170, 171, 172, 173, 174, 175, 176, 177, 178, 179, 180, 181, 182, 183, 184, 185, 186, 187, 188, 189, 190, 191, 192, 193, 194, 195, 196, 197, 198, 199, 200, 201, 202, 203, 204, 205, 206, 207, 208, 209, 210, 211, 212, 213, 214, 215, 216, 217, 218, 219, 220, 221, 222, 223, 224, 225, 226, 227, 228, 229, 230, 231, 232, 233, 234, 235, 236, 237, 238, 239, 240, 241, 242, 243, 244, 245, 246, 247, 248, 249, 250, 251, 252, 253, 254, 255, 256, 257, 258, 259, 260, 261, 262, 263, 264],
      "AcquisitionTime": ["102749.465000", "102750.465000", "102751.465000", "102752.465000", "102753.465000", "102754.465000", "102755.465000", "102756.465000", "102757.465000", "102758.465000", "102759.465000", "102800.465000", "102801.465000", "102802.465000", "102803.465000", "102804.465000", "102805.465000", "102806.465000", "102807.465000", "102808.465000", "102809.465000", "102810.465000", "102811.465000", "102812.465000", "102813.465000", "102814.465000", "102815.465000", "102816.465000", "102817.465000", "102818.465000", "102819.465000", "102820.465000", "102821.465000", "102822.465000", "102823.465000", "102824.465000", "102825.465000", "102826.465000", "102827.465000", "102828.465000", "102829.465000", "102830.465000", "102831.465000", "102832.465000", "102833.465000", "102834.465000", "102835.465000", "102836.465000", "102837.465000", "102838.465000", "102839.465000", "102840.465000", "102841.465000", "102842.465000", "102843.465000", "102844.465000", "102845.465000", "102846.465000", "102847.465000", "102848.465000", "102849.465000", "102850.465000", "102851.465000", "102852.465000", "102853.465000", "102854.465000", "102855.465000", "102856.465000", "102857.465000", "102858.465000", "102859.465000", "102900.465000", "102901.465000", "102902.465000", "102903.465000", "102904.465000", "102905.465000", "102906.465000", "102907.465000", "102908.465000", "102909.465000", "102910.465000", "102911.465000", "102912.465000", "102913.465000", "102914.465000", "102915.465000", "102916.465000", "102917.465000", "102918.465000", "102919.465000", "102920.465000", "102921.465000", "102922.465000", "102923.465000", "102924.465000", "102925.465000", "102926.465000", "102927.465000", "102928.465000", "102929.465000", "102930.465000", "102931.465000", "102932.465000", "102933.465000", "102934.465000", "102935.465000", "102936.465000", "102937.465000", "102938.465000", "102939.465000", "102940.465000", "102941.465000", "102942.465000", "102943.465000", "102944.465000", "102945.465000", "102946.465000", "102947.465000", "102948.465000", "102949.465000", "102950.465000", "102951.465000", "102952.465000", "102953.465000", "102954.465000", "102955.465000", "102956.465000", "102957.465000", "102958.465000", "102959.465000", "103000.465000", "103001.465000", "103002.465000", "103003.465000", "103004.465000", "103005.465000", "103006.465000", "103007.465000", "103008.465000", "103009.465000", "103010.465000", "103011.465000", "103012.465000", "103013.465000", "103014.465000", "103015.465000", "103016.465000", "103017.465000", "103018.465000", "103019.465000", "103020.465000", "103021.465000", "103022.465000", "103023.465000", "103024.465000", "103025.465000", "103026.465000", "103027.465000", "103028.465000", "103029.465000", "103030.465000", "103031.465000", "103032.465000", "103033.465000", "103034.465000", "103035.465000", "103036.465000", "103037.465000", "103038.465000", "103039.465000", "103040.465000", "103041.465000", "103042.465000", "103043.465000", "103044.465000", "103045.465000", "103046.465000", "103047.465000", "103048.465000", "103049.465000", "103050.465000", "103051.465000", "103052.465000", "103053.465000", "103054.465000", "103055.465000", "103056.465000", "103057.465000", "103058.465000", "103059.465000", "103100.465000", "103101.465000", "103102.465000", "103103.465000", "103104.465000", "103105.465000", "103106.465000", "103107.465000", "103108.465000", "103109.465000", "103110.465000", "103111.465000", "103112.465000", "103113.465000", "103114.465000", "103115.465000", "103116.465000", "103117.465000", "103118.465000", "103119.465000", "103120.465000", "103121.465000", "103122.465000", "103123.465000", "103124.465000", "103125.465000", "103126.465000", "103127.465000", "103128.465000", "103129.465000", "103130.465000", "103131.465000", "103132.465000", "103133.465000", "103134.465000", "103135.465000", "103136.465000", "103137.465000", "103138.465000", "103139.465000", "103140.465000", "103141.465000", "103142.465000", "103143.465000", "103144.465000", "103145.465000", "103146.465000", "103147.465000", "103148.465000", "103149.465000", "103150.465000", "103151.465000", "103152.465000", "103153.465000", "103154.465000", "103155.465000", "103156.465000", "103157.465000", "103158.465000", "103159.465000", "103200.465000", "103201.465000", "103202.465000", "103203.465000", "103204.465000", "103205.465000", "103206.465000", "103207.465000", "103208.465000", "103209.465000", "103210.465000", "103211.465000", "103212.465000"],
      "ContentTime": ["102849.693000", "102849.697000", "102849.700000", "102849.703000", "102849.706000", "102854.658000", "102854.661000", "102854.664000", "102854.667000", "102854.670000", "102854.672000", "102854.675000", "102859.658000", "102859.661000", "102859.664000", "102859.667000", "102859.669000", "102859.672000", "102859.675000", "102904.658000", "102904.661000", "102904.663000", "102904.666000", "102904.669000", "102904.689000", "102904.692000", "102904.695000", "102909.658000", "102909.661000", "102909.664000", "102909.667000", "102909.670000", "102909.672000", "102909.675000", "102914.658000", "102914.661000", "102914.664000", "102914.667000", "102914.670000", "102914.672000", "102914.675000", "102919.658000", "102919.661000", "102919.664000", "102919.667000", "102919.669000", "102919.672000", "102919.675000", "102924.657000", "102924.660000", "102924.663000", "102924.666000", "102924.669000", "102924.671000", "102924.674000", "102929.658000", "102929.661000", "102929.664000", "102929.667000", "102929.669000", "102929.672000", "102929.675000", "102934.659000", "102934.663000", "102934.666000", "102934.672000", "102934.675000", "102934.678000", "102934.680000", "102939.658000", "102939.661000", "102939.664000", "102939.667000", "102939.669000", "102939.672000", "102939.675000", "102944.658000", "102944.661000", "102944.664000", "102944.667000", "102944.669000", "102944.672000", "102944.675000", "102949.658000", "102949.661000", "102949.664000", "102949.667000", "102949.670000", "102949.672000", "102949.675000", "102954.658000", "102954.661000", "102954.664000", "102954.667000", "102954.669000", "102954.672000", "102954.675000", "102959.657000", "102959.660000", "102959.663000", "102959.666000", "102959.669000", "102959.671000", "102959.674000", "103004.658000", "103004.661000", "103004.664000", "103004.667000", "103004.670000", "103004.672000", "103004.675000", "103009.658000", "103009.661000", "103009.664000", "103009.667000", "103009.670000", "103009.672000", "103009.675000", "103014.658000", "103014.661000", "103014.664000", "103014.667000", "103014.669000", "103014.686000", "103014.689000", "103019.658000", "103019.661000", "103019.664000", "103019.667000", "103019.669000", "103019.672000", "103019.675000", "103024.658000", "103024.661000", "103024.664000", "103024.667000", "103024.670000", "103024.673000", "103024.676000", "103029.658000", "103029.661000", "103029.664000", "103029.667000", "103029.670000", "103029.672000", "103029.675000", "103034.657000", "103034.660000", "103034.663000", "103034.666000", "103034.669000", "103034.672000", "103034.674000", "103039.658000", "103039.661000", "103039.664000", "103039.666000", "103039.669000", "103039.672000", "103039.675000", "103039.678000", "103044.658000", "103044.661000", "103044.664000", "103044.667000", "103044.670000", "103044.673000", "103049.658000", "103049.661000", "103049.664000", "103049.667000", "103049.669000", "103049.672000", "103049.675000", "103049.678000", "103054.658000", "103054.661000", "103054.664000", "103054.667000", "103054.670000", "103054.672000", "103054.675000", "103059.658000", "103059.661000", "103059.664000", "103059.667000", "103059.669000", "103059.672000", "103059.675000", "103104.658000", "103104.661000", "103104.664000", "103104.667000", "103104.670000", "103109.657000", "103109.660000", "103109.663000", "103109.666000", "103109.669000", "103114.658000", "103114.661000", "103114.664000", "103114.667000", "103114.670000", "103119.658000", "103119.661000", "103119.664000", "103119.667000", "103119.670000", "103124.658000", "103124.661000", "103124.664000", "103124.667000", "103124.670000", "103129.658000", "103129.661000", "103129.664000", "103129.667000", "103129.670000", "103134.658000", "103134.661000", "103134.664000", "103134.667000", "103134.670000", "103139.658000", "103139.661000", "103139.664000", "103139.667000", "103139.670000", "103144.657000", "103144.660000", "103144.663000", "103144.666000", "103144.668000", "103149.658000", "103149.661000", "103149.664000", "103149.667000", "103149.670000", "103154.658000", "103154.661000", "103154.664000", "103154.667000", "103154.670000", "103159.658000", "103159.661000", "103159.664000", "103159.667000", "103159.670000", "103204.658000", "103204.661000", "103204.664000", "103204.667000", "103204.670000", "103209.658000", "103209.671000", "103209.674000", "103209.677000", "103209.680000", "103214.027000", "103214.030000", "103214.033000", "103214.036000", "103214.040000"],
      "InstanceCreationTime": ["102849.693000", "102849.697000", "102849.700000", "102849.703000", "102849.706000", "102854.658000", "102854.661000", "102854.664000", "102854.667000", "102854.670000", "102854.672000", "102854.675000", "102859.658000", "102859.661000", "102859.664000", "102859.667000", "102859.669000", "102859.672000", "102859.675000", "102904.658000", "102904.661000", "102904.663000", "102904.666000", "102904.669000", "102904.689000", "102904.692000", "102904.695000", "102909.658000", "102909.661000", "102909.664000", "102909.667000", "102909.670000", "102909.672000", "102909.675000", "102914.658000", "102914.661000", "102914.664000", "102914.667000", "102914.670000", "102914.672000", "102914.675000", "102919.658000", "102919.661000", "102919.664000", "102919.667000", "102919.669000", "102919.672000", "102919.675000", "102924.657000", "102924.660000", "102924.663000", "102924.666000", "102924.669000", "102924.671000", "102924.674000", "102929.658000", "102929.661000", "102929.664000", "102929.667000", "102929.669000", "102929.672000", "102929.675000", "102934.659000", "102934.663000", "102934.666000", "102934.672000", "102934.675000", "102934.678000", "102934.680000", "102939.658000", "102939.661000", "102939.664000", "102939.667000", "102939.669000", "102939.672000", "102939.675000", "102944.658000", "102944.661000", "102944.664000", "102944.667000", "102944.669000", "102944.672000", "102944.675000", "102949.658000", "102949.661000", "102949.664000", "102949.667000", "102949.670000", "102949.672000", "102949.675000", "102954.658000", "102954.661000", "102954.664000", "102954.667000", "102954.669000", "102954.672000", "102954.675000", "102959.657000", "102959.660000", "102959.663000", "102959.666000", "102959.669000", "102959.671000", "102959.674000", "103004.658000", "103004.661000", "103004.664000", "103004.667000", "103004.670000", "103004.672000", "103004.675000", "103009.658000", "103009.661000", "103009.664000", "103009.667000", "103009.670000", "103009.672000", "103009.675000", "103014.658000", "103014.661000", "103014.664000", "103014.667000", "103014.669000", "103014.686000", "103014.689000", "103019.658000", "103019.661000", "103019.664000", "103019.667000", "103019.669000", "103019.672000", "103019.675000", "103024.658000", "103024.661000", "103024.664000", "103024.667000", "103024.670000", "103024.673000", "103024.676000", "103029.658000", "103029.661000", "103029.664000", "103029.667000", "103029.670000", "103029.672000", "103029.675000", "103034.657000", "103034.660000", "103034.663000", "103034.666000", "103034.669000", "103034.672000", "103034.674000", "103039.658000", "103039.661000", "103039.664000", "103039.666000", "103039.669000", "103039.672000", "103039.675000", "103039.678000", "103044.658000", "103044.661000", "103044.664000", "103044.667000", "103044.670000", "103044.673000", "103049.658000", "103049.661000", "103049.664000", "103049.667000", "103049.669000", "103049.672000", "103049.675000", "103049.678000", "103054.658000", "103054.661000", "103054.664000", "103054.667000", "103054.670000", "103054.672000", "103054.675000", "103059.658000", "103059.661000", "103059.664000", "103059.667000", "103059.669000", "103059.672000", "103059.675000", "103104.658000", "103104.661000", "103104.664000", "103104.667000", "103104.670000", "103109.657000", "103109.660000", "103109.663000", "103109.666000", "103109.669000", "103114.658000", "103114.661000", "103114.664000", "103114.667000", "103114.670000", "103119.658000", "103119.661000", "103119.664000", "103119.667000", "103119.670000", "103124.658000", "103124.661000", "103124.664000", "103124.667000", "103124.670000", "103129.658000", "103129.661000", "103129.664000", "103129.667000", "103129.670000", "103134.658000", "103134.661000", "103134.664000", "103134.667000", "103134.670000", "103139.658000", "103139.661000", "103139.664000", "103139.667000", "103139.670000", "103144.657000", "103144.660000", "103144.663000", "103144.666000", "103144.668000", "103149.658000", "103149.661000", "103149.664000", "103149.667000", "103149.670000", "103154.658000", "103154.661000", "103154.664000", "103154.667000", "103154.670000", "103159.658000", "103159.661000", "103159.664000", "103159.667000", "103159.670000", "103204.658000", "103204.661000", "103204.664000", "103204.667000", "103204.670000", "103209.658000", "103209.671000", "103209.674000", "103209.677000", "103209.680000", "103214.027000", "103214.030000", "103214.033000", "103214.036000", "103214.040000"],
      "InstanceNumber": [1, 2, 3, 4, 5, 6, 7, 8, 9, 10, 11, 12, 13, 14, 15, 16, 17, 18, 19, 20, 21, 22, 23, 24, 25, 26, 27, 28, 29, 30, 31, 32, 33, 34, 35, 36, 37, 38, 39, 40, 41, 42, 43, 44, 45, 46, 47, 48, 49, 50, 51, 52, 53, 54, 55, 56, 57, 58, 59, 60, 61, 62, 63, 64, 65, 66, 67, 68, 69, 70, 71, 72, 73, 74, 75, 76, 77, 78, 79, 80, 81, 82, 83, 84, 85, 86, 87, 88, 89, 90, 91, 92, 93, 94, 95, 96, 97, 98, 99, 100, 101, 102, 103, 104, 105, 106, 107, 108, 109, 110, 111, 112, 113, 114, 115, 116, 117, 118, 119, 120, 121, 122, 123, 124, 125, 126, 127, 128, 129, 130, 131, 132, 133, 134, 135, 136, 137, 138, 139, 140, 141, 142, 143, 144, 145, 146, 147, 148, 149, 150, 151, 152, 153, 154, 155, 156, 157, 158, 159, 160, 161, 162, 163, 164, 165, 166, 167, 168, 169, 170, 171, 172, 173, 174, 175, 176, 177, 178, 179, 180, 181, 182, 183, 184, 185, 186, 187, 188, 189, 190, 191, 192, 193, 194, 195, 196, 197, 198, 199, 200, 201, 202, 203, 204, 205, 206, 207, 208, 209, 210, 211, 212, 213, 214, 215, 216, 217, 218, 219, 220, 221, 222, 223, 224, 225, 226, 227, 228, 229, 230, 231, 232, 233, 234, 235, 236, 237, 238, 239, 240, 241, 242, 243, 244, 245, 246, 247, 248, 249, 250, 251, 252, 253, 254, 255, 256, 257, 258, 259, 260, 261, 262, 263, 264],
      "LargestImagePixelValue": [40849, 39793, 39213, 38695, 38564, 38409, 38162, 38213, 38259, 38192, 38115, 37765, 37775, 38501, 38151, 38110, 38434, 38556, 38598, 38208, 37965, 38202, 37933, 38101, 38480, 38771, 38344, 38853, 38351, 38118, 38518, 38146, 38124, 38402, 38253, 38384, 38462, 38565, 38471, 39123, 39010, 38455, 38753, 39022, 38451, 38842, 38894, 38345, 38600, 38545, 38343, 38356, 39053, 38773, 38446, 38893, 38693, 38683, 38448, 38832, 38634, 38560, 38519, 38316, 38176, 38602, 38392, 38599, 38286, 38824, 38430, 38727, 38093, 38707, 38478, 38882, 38645, 38442, 38595, 38906, 38562, 38588, 38762, 38679, 38836, 38513, 38788, 38574, 38724, 38930, 38750, 38355, 38681, 38444, 38623, 39008, 39079, 38390, 38631, 38703, 38379, 38718, 38862, 38736, 38856, 39141, 38254, 38664, 38529, 39045, 38346, 38548, 38660, 38727, 38733, 38798, 38914, 39004, 38558, 38561, 38537, 38814, 38407, 38537, 39022, 38357, 38713, 38622, 38899, 38719, 38794, 38671, 38514, 38776, 38617, 38282, 38540, 39006, 38333, 38665, 39125, 38848, 38536, 39317, 38831, 38415, 38927, 38737, 39076, 38970, 38786, 39103, 38451, 38836, 38853, 38569, 38765, 38848, 38870, 38457, 38685, 38871, 38660, 39393, 38796, 38992, 38836, 39113, 38993, 38648, 39254, 38342, 39133, 39263, 38974, 38685, 38945, 38929, 38523, 38948, 38724, 38676, 38590, 38791, 39060, 38496, 38489, 38912, 38742, 39013, 38817, 39115, 38759, 38633, 38747, 38482, 38496, 38854, 38751, 38658, 39142, 38712, 38675, 39444, 38662, 38631, 39024, 38772, 39075, 38991, 38829, 38814, 39065, 39142, 38918, 39217, 38636, 38660, 38941, 38773, 38547, 38760, 38723, 38584, 38558, 38737, 38472, 38715, 38787, 38481, 38617, 38669, 38510, 38362, 38924, 38500, 38719, 38687, 38780, 38427, 38969, 38913, 38731, 38884, 38516, 38679, 38474, 38529, 38674, 38301, 38581, 38980, 38528, 38654, 38795, 38486, 38599, 38712, 38651, 38480, 38606, 38515, 38553, 38619],
      "WindowCenter": [10271.0, 10229.0, 10220.0, 10201.0, 10203.0, 10202.0, 10189.0, 10194.0, 10196.0, 10203.0, 10213.0, 10222.0, 10237.0, 10251.0, 10245.0, 10238.0, 10238.0, 10243.0, 10240.0, 10236.0, 10243.0, 10245.0, 10244.0, 10237.0, 10236.0, 10233.0, 10232.0, 10237.0, 10237.0, 10239.0, 10241.0, 10241.0, 10235.0, 10233.0, 10230.0, 10217.0, 10221.0, 10221.0, 10215.0, 10227.0, 10232.0, 10229.0, 10234.0, 10228.0, 10229.0, 10229.0, 10229.0, 10224.0, 10222.0, 10212.0, 10214.0, 10215.0, 10225.0, 10222.0, 10226.0, 10229.0, 10217.0, 10208.0, 10208.0, 10206.0, 10204.0, 10203.0, 10205.0, 10200.0, 10196.0, 10199.0, 10199.0, 10199.0, 10193.0, 10190.0, 10185.0, 10196.0, 10191.0, 10206.0, 10213.0, 10220.0, 10220.0, 10216.0, 10222.0, 10216.0, 10208.0, 10212.0, 10221.0, 10224.0, 10230.0, 10232.0, 10231.0, 10230.0, 10231.0, 10229.0, 10224.0, 10224.0, 10237.0, 10233.0, 10237.0, 10238.0, 10230.0, 10221.0, 10223.0, 10221.0, 10216.0, 10221.0, 10224.0, 10223.0, 10223.0, 10224.0, 10218.0, 10224.0, 10218.0, 10214.0, 10195.0, 10193.0, 10201.0, 10204.0, 10210.0, 10213.0, 10216.0, 10215.0, 10197.0, 10193.0, 10185.0, 10176.0, 10169.0, 10170.0, 10185.0, 10182.0, 10195.0, 10197.0, 10203.0, 10202.0, 10197.0, 10195.0, 10189.0, 10193.0, 10189.0, 10183.0, 10190.0, 10209.0, 10207.0, 10212.0, 10217.0, 10206.0, 10206.0, 10218.0, 10220.0, 10230.0, 10235.0, 10230.0, 10234.0, 10215.0, 10201.0, 10203.0, 10180.0, 10183.0, 10183.0, 10188.0, 10189.0, 10198.0, 10204.0, 10207.0, 10220.0, 10215.0, 10216.0, 10225.0, 10205.0, 10200.0, 10192.0, 10197.0, 10190.0, 10191.0, 10202.0, 10192.0, 10203.0, 10203.0, 10204.0, 10199.0, 10211.0, 10212.0, 10207.0, 10212.0, 10215.0, 10207.0, 10213.0, 10208.0, 10211.0, 10189.0, 10193.0, 10199.0, 10191.0, 10190.0, 10183.0, 10182.0, 10182.0, 10184.0, 10182.0, 10176.0, 10174.0, 10176.0, 10182.0, 10190.0, 10197.0, 10197.0, 10196.0, 10200.0, 10189.0, 10188.0, 10190.0, 10189.0, 10194.0, 10189.0, 10188.0, 10190.0, 10195.0, 10190.0, 10195.0, 10209.0, 10204.0, 10205.0, 10211.0, 10200.0, 10199.0, 10199.0, 10198.0, 10197.0, 10199.0, 10205.0, 10206.0, 10212.0, 10207.0, 10199.0, 10197.0, 10196.0, 10196.0, 10199.0, 10210.0, 10214.0, 10218.0, 10213.0, 10207.0, 10206.0, 10211.0, 10204.0, 10206.0, 10212.0, 10207.0, 10209.0, 10207.0, 10208.0, 10215.0, 10209.0, 10214.0, 10215.0, 10204.0, 10203.0, 10197.0, 10188.0, 10194.0, 10193.0, 10192.0, 10187.0, 10184.0, 10172.0, 10177.0, 10183.0],
      "WindowWidth": [22282.0, 22145.0, 22100.0, 22047.0, 22043.0, 22036.0, 22004.0, 22013.0, 22016.0, 22031.0, 22058.0, 22079.0, 22117.0, 22149.0, 22135.0, 22119.0, 22118.0, 22126.0, 22119.0, 22113.0, 22128.0, 22134.0, 22133.0, 22117.0, 22113.0, 22106.0, 22101.0, 22110.0, 22112.0, 22118.0, 22124.0, 22123.0, 22111.0, 22103.0, 22094.0, 22065.0, 22072.0, 22069.0, 22059.0, 22085.0, 22093.0, 22090.0, 22100.0, 22087.0, 22089.0, 22089.0, 22086.0, 22080.0, 22074.0, 22051.0, 22053.0, 22057.0, 22076.0, 22073.0, 22083.0, 22086.0, 22059.0, 22040.0, 22037.0, 22031.0, 22025.0, 22022.0, 22029.0, 22020.0, 22011.0, 22016.0, 22016.0, 22016.0, 22004.0, 21994.0, 21984.0, 22005.0, 21997.0, 22032.0, 22050.0, 22063.0, 22064.0, 22059.0, 22070.0, 22057.0, 22038.0, 22048.0, 22069.0, 22077.0, 22094.0, 22097.0, 22095.0, 22092.0, 22094.0, 22086.0, 22078.0, 22079.0, 22105.0, 22099.0, 22108.0, 22110.0, 22091.0, 22071.0, 22075.0, 22069.0, 22059.0, 22070.0, 22076.0, 22074.0, 22075.0, 22077.0, 22065.0, 22080.0, 22067.0, 22053.0, 22012.0, 22006.0, 22021.0, 22027.0, 22042.0, 22052.0, 22057.0, 22054.0, 22014.0, 22002.0, 21985.0, 21963.0, 21949.0, 21949.0, 21980.0, 21979.0, 22007.0, 22012.0, 22025.0, 22024.0, 22012.0, 22007.0, 21992.0, 22001.0, 21992.0, 21982.0, 21998.0, 22037.0, 22038.0, 22048.0, 22060.0, 22035.0, 22036.0, 22059.0, 22070.0, 22093.0, 22103.0, 22094.0, 22099.0, 22057.0, 22025.0, 22025.0, 21974.0, 21978.0, 21979.0, 21988.0, 21993.0, 22014.0, 22026.0, 22036.0, 22064.0, 22054.0, 22058.0, 22075.0, 22031.0, 22018.0, 22000.0, 22007.0, 21994.0, 21997.0, 22020.0, 22001.0, 22024.0, 22023.0, 22024.0, 22016.0, 22040.0, 22043.0, 22034.0, 22045.0, 22048.0, 22034.0, 22045.0, 22036.0, 22040.0, 21994.0, 22002.0, 22014.0, 21996.0, 21995.0, 21977.0, 21973.0, 21974.0, 21979.0, 21973.0, 21961.0, 21955.0, 21959.0, 21973.0, 21992.0, 22008.0, 22009.0, 22004.0, 22013.0, 21990.0, 21987.0, 21991.0, 21989.0, 22002.0, 21989.0, 21989.0, 21993.0, 22004.0, 21995.0, 22006.0, 22036.0, 22028.0, 22032.0, 22043.0, 22018.0, 22018.0, 22016.0, 22014.0, 22009.0, 22014.0, 22029.0, 22031.0, 22047.0, 22033.0, 22016.0, 22010.0, 22005.0, 22005.0, 22015.0, 22040.0, 22053.0, 22061.0, 22051.0, 22037.0, 22033.0, 22041.0, 22030.0, 22034.0, 22046.0, 22038.0, 22040.0, 22036.0, 22039.0, 22053.0, 22043.0, 22053.0, 22054.0, 22031.0, 22027.0, 22013.0, 21995.0, 22007.0, 22004.0, 22001.0, 21987.0, 21979.0, 21954.0, 21962.0, 21974.0]
    },
    "slices": {}
  }
}