{
  "AcquisitionMatrixPE": 104,
  "AcquisitionNumber": 1,
  "AcquisitionTime": "10:13:30.430000",
  "BandwidthPerPixelPhaseEncode": 16.578,
  "BaseResolution": 104,
  "BodyPartExamined": "BRAIN",
  "ConsistencyInfo": "N4_VE11C_LATEST_20160120",
  "ConversionSoftware": "dcm2niix",
  "ConversionSoftwareVersion": "v1.0.20190410  GCC6.3.0",
  "DerivedVendorReportedEchoSpacing": 0.000580009,
  "DeviceSerialNumber": "166018",
  "DwellTime": 2.1e-06,
  "EchoTime": 0.037,
  "EchoTrainLength": 104,
  "EffectiveEchoSpacing": 0.000580009,
  "FlipAngle": 68,
  "ImageComments": "Unaliased_MB6_PE3_LB",
  "ImageOrientationPatientDICOM": [0.995442, 0.0831316, 0.0467403, -0.0820152, 0.996309, -0.0253203],
  "ImageType": [
    "ORIGINAL",
    "PRIMARY",
    "M",
    "MB",
    "ND",
    "MOSAIC"
],
  "ImagingFrequency": 123.191,
  "InPlanePhaseEncodingDirectionDICOM": "COL",
  "InstitutionAddress": "Washington_Place_6_NYC_NYC_US_10003",
  "InstitutionName": "NYU_Center_for_Brain_Imaging",
  "InstitutionalDepartmentName": "Department",
  "MRAcquisitionType": "2D",
  "MagneticFieldStrength": 3,
  "Manufacturer": "Siemens",
  "ManufacturersModelName": "Prisma",
  "Modality": "MR",
  "MultibandAccelerationFactor": 6,
  "PartialFourier": 1,
  "PatientPosition": "HFS",
  "PercentPhaseFOV": 100,
  "PhaseEncodingDirection": "j",
  "PhaseEncodingSteps": 104,
  "PhaseResolution": 1,
  "PixelBandwidth": 2290,
  "ProcedureStepDescription": "Investigators_Winawer",
  "ProtocolName": "task-sfprescaled_cmrr_mbepi_s6_2mm_66sl_PA_TR1.0",
  "PulseSequenceDetails": "%CustomerSeq%_cmrr_mbep2d_bold",
  "ReceiveCoilActiveElements": "HC1-7",
  "ReceiveCoilName": "HeadNeck_64",
  "ReconMatrixPE": 104,
  "RepetitionTime": 1,
  "SAR": 0.0685127,
  "ScanOptions": "FS",
  "ScanningSequence": "EP",
  "SequenceName": "epfid2d1_104",
  "SequenceVariant": "SK_SS",
  "SeriesDescription": "task-sfprescaled_cmrr_mbepi_s6_2mm_66sl_PA_TR1.0",
  "SeriesNumber": 8,
  "ShimSetting": [277, -12593, -8545, 325, -6, -111, -35, 26],
  "SliceThickness": 2,
  "SliceTiming": [0, 0.5325, 0.0875, 0.6225, 0.1775, 0.7125, 0.2675, 0.8, 0.355, 0.89, 0.445, 0, 0.5325, 0.0875, 0.6225, 0.1775, 0.7125, 0.2675, 0.8, 0.355, 0.89, 0.445, 0, 0.5325, 0.0875, 0.6225, 0.1775, 0.7125, 0.2675, 0.8, 0.355, 0.89, 0.445, 0, 0.5325, 0.0875, 0.6225, 0.1775, 0.7125, 0.2675, 0.8, 0.355, 0.89, 0.445, 0, 0.5325, 0.0875, 0.6225, 0.1775, 0.7125, 0.2675, 0.8, 0.355, 0.89, 0.445, 0, 0.5325, 0.0875, 0.6225, 0.1775, 0.7125, 0.2675, 0.8, 0.355, 0.89, 0.445],
  "SoftwareVersions": "syngo_MR_E11",
  "SpacingBetweenSlices": 2,
  "StationName": "AWP166018",
  "TaskName": "sfprescaled",
  "TotalReadoutTime": 0.0597409,
  "TxRefAmp": 203.092,
  "WipMemBlock": "7de05b99-da33-4cf8-aed5-c1e525a8e42a||Sequence: R016 ve11c/master r/8780670; Nov 27 2017 15:05:12 by eja",
  "dcmmeta_affine": [
    [-1.990883708000183, -0.16403035819530487, 0.09734547138214111, 113.74717712402344],
    [-0.16626325249671936, 1.9926187992095947, -0.04274289309978485, -73.30086517333984],
    [0.09348063915967941, 0.05064055323600769, 1.997172236442566, -41.04076385498047],
    [0.0, 0.0, 0.0, 1.0]
],
  "dcmmeta_reorient_transform": [
    [0.0, -1.0, 0.0, 103.0],
    [1.0, 0.0, 0.0, 0.0],
    [0.0, 0.0, 1.0, 0.0],
    [0.0, 0.0, 0.0, 1.0]
],
  "dcmmeta_shape": [104, 104, 66, 264],
  "dcmmeta_slice_dim": 2,
  "dcmmeta_version": 0.6,
  "global": {
    "const": {
      "AccessionNumber": "jv3y3i0c",
  "NumberOfVolumes": 264,
      "AcquisitionMatrix": [104, 0, 0, 104],
      "AngioFlag": "N",
      "BitsAllocated": 16,
      "BitsStored": 16,
      "BodyPartExamined": "BRAIN",
      "Columns": 936,
      "EchoNumbers": 1,
      "EchoTime": 37.0,
      "EchoTrainLength": 104,
      "FlipAngle": 68.0,
      "HighBit": 15,
      "ImageOrientationPatient": [0.99544184899904, 0.08313162831178, 0.04674032130395, -0.0820151813389, 0.99630938650778, -0.0253202761922],
      "ImagePositionPatient": [-856.82303483909, -1030.0337956389, -53.646265343491],
      "ImageType": [
        "ORIGINAL",
        "PRIMARY",
        "M",
        "MB",
        "ND",
        "MOSAIC"
],
      "ImagedNucleus": "1H",
      "ImagingFrequency": 123.191083,
      "InPlanePhaseEncodingDirection": "COL",
      "MRAcquisitionType": "2D",
      "MagneticFieldStrength": 3.0,
      "Manufacturer": "SIEMENS",
      "ManufacturerModelName": "Prisma",
      "Modality": "MR",
      "NumberOfAverages": 1.0,
      "NumberOfPhaseEncodingSteps": 104,
      "PercentPhaseFieldOfView": 100.0,
      "PercentSampling": 100.0,
      "PerformedProcedureStepStartTime": "100021.887000",
      "PhotometricInterpretation": "MONOCHROME2",
      "PixelBandwidth": 2290.0,
      "PixelRepresentation": 0,
      "PixelSpacing": [2.0, 2.0],
      "ProtocolName": "task-sfprescaled_cmrr_mbepi_s6_2mm_66sl_PA_TR1.0",
      "RepetitionTime": 1000.0,
      "Rows": 936,
      "SAR": 0.06851266208846,
      "SamplesPerPixel": 1,
      "ScanOptions": "FS",
      "ScanningSequence": "EP",
      "SequenceName": "epfid2d1_104",
      "SequenceVariant": [
        "SK",
        "SS"
],
      "SeriesDescription": "task-sfprescaled_cmrr_mbepi_s6_2mm_66sl_PA_TR1.0",
      "SeriesNumber": 8,
      "SeriesTime": "101428.401000",
      "SliceLocation": -33.879805977721,
      "SliceThickness": 2.0,
      "SmallestImagePixelValue": 0,
      "SoftwareVersions": "syngo MR E11",
      "SpacingBetweenSlices": 2.0000000256817,
      "SpecificCharacterSet": "ISO_IR 100",
      "StudyID": "1",
      "StudyTime": "100021.836000",
      "TransmitCoilName": "Body",
      "VariableFlipAngleFlag": "N",
      "WindowCenterWidthExplanation": "Algo1",
      "dBdt": 0.0},
    "slices": {}
  },
  "time": {
    "samples": {
      "AcquisitionNumber": [1, 2, 3, 4, 5, 6, 7, 8, 9, 10, 11, 12, 13, 14, 15, 16, 17, 18, 19, 20, 21, 22, 23, 24, 25, 26, 27, 28, 29, 30, 31, 32, 33, 34, 35, 36, 37, 38, 39, 40, 41, 42, 43, 44, 45, 46, 47, 48, 49, 50, 51, 52, 53, 54, 55, 56, 57, 58, 59, 60, 61, 62, 63, 64, 65, 66, 67, 68, 69, 70, 71, 72, 73, 74, 75, 76, 77, 78, 79, 80, 81, 82, 83, 84, 85, 86, 87, 88, 89, 90, 91, 92, 93, 94, 95, 96, 97, 98, 99, 100, 101, 102, 103, 104, 105, 106, 107, 108, 109, 110, 111, 112, 113, 114, 115, 116, 117, 118, 119, 120, 121, 122, 123, 124, 125, 126, 127, 128, 129, 130, 131, 132, 133, 134, 135, 136, 137, 138, 139, 140, 141, 142, 143, 144, 145, 146, 147, 148, 149, 150, 151, 152, 153, 154, 155, 156, 157, 158, 159, 160, 161, 162, 163, 164, 165, 166, 167, 168, 169, 170, 171, 172, 173, 174, 175, 176, 177, 178, 179, 180, 181, 182, 183, 184, 185, 186, 187, 188, 189, 190, 191, 192, 193, 194, 195, 196, 197, 198, 199, 200, 201, 202, 203, 204, 205, 206, 207, 208, 209, 210, 211, 212, 213, 214, 215, 216, 217, 218, 219, 220, 221, 222, 223, 224, 225, 226, 227, 228, 229, 230, 231, 232, 233, 234, 235, 236, 237, 238, 239, 240, 241, 242, 243, 244, 245, 246, 247, 248, 249, 250, 251, 252, 253, 254, 255, 256, 257, 258, 259, 260, 261, 262, 263, 264],
      "AcquisitionTime": ["101330.430000", "101331.430000", "101332.430000", "101333.430000", "101334.430000", "101335.430000", "101336.430000", "101337.430000", "101338.430000", "101339.430000", "101340.430000", "101341.430000", "101342.430000", "101343.430000", "101344.430000", "101345.430000", "101346.430000", "101347.430000", "101348.430000", "101349.430000", "101350.430000", "101351.430000", "101352.430000", "101353.430000", "101354.430000", "101355.430000", "101356.430000", "101357.430000", "101358.430000", "101359.430000", "101400.430000", "101401.430000", "101402.430000", "101403.430000", "101404.430000", "101405.430000", "101406.430000", "101407.430000", "101408.430000", "101409.430000", "101410.430000", "101411.430000", "101412.430000", "101413.430000", "101414.430000", "101415.430000", "101416.430000", "101417.430000", "101418.430000", "101419.430000", "101420.430000", "101421.430000", "101422.430000", "101423.430000", "101424.430000", "101425.430000", "101426.430000", "101427.430000", "101428.430000", "101429.430000", "101430.430000", "101431.430000", "101432.430000", "101433.430000", "101434.430000", "101435.430000", "101436.430000", "101437.430000", "101438.430000", "101439.430000", "101440.430000", "101441.430000", "101442.430000", "101443.430000", "101444.430000", "101445.430000", "101446.430000", "101447.430000", "101448.430000", "101449.430000", "101450.430000", "101451.430000", "101452.430000", "101453.430000", "101454.430000", "101455.430000", "101456.430000", "101457.430000", "101458.430000", "101459.430000", "101500.430000", "101501.430000", "101502.430000", "101503.430000", "101504.430000", "101505.430000", "101506.430000", "101507.430000", "101508.430000", "101509.430000", "101510.430000", "101511.430000", "101512.430000", "101513.430000", "101514.430000", "101515.430000", "101516.430000", "101517.430000", "101518.430000", "101519.430000", "101520.430000", "101521.430000", "101522.430000", "101523.430000", "101524.430000", "101525.430000", "101526.430000", "101527.430000", "101528.430000", "101529.430000", "101530.430000", "101531.430000", "101532.430000", "101533.430000", "101534.430000", "101535.430000", "101536.430000", "101537.430000", "101538.430000", "101539.430000", "101540.430000", "101541.430000", "101542.430000", "101543.430000", "101544.430000", "101545.430000", "101546.430000", "101547.430000", "101548.430000", "101549.430000", "101550.430000", "101551.430000", "101552.430000", "101553.430000", "101554.430000", "101555.430000", "101556.430000", "101557.430000", "101558.430000", "101559.430000", "101600.430000", "101601.430000", "101602.430000", "101603.430000", "101604.430000", "101605.430000", "101606.430000", "101607.430000", "101608.430000", "101609.430000", "101610.430000", "101611.430000", "101612.430000", "101613.430000", "101614.430000", "101615.430000", "101616.430000", "101617.430000", "101618.430000", "101619.430000", "101620.430000", "101621.430000", "101622.430000", "101623.430000", "101624.430000", "101625.430000", "101626.430000", "101627.430000", "101628.430000", "101629.430000", "101630.430000", "101631.430000", "101632.430000", "101633.430000", "101634.430000", "101635.430000", "101636.430000", "101637.430000", "101638.430000", "101639.430000", "101640.430000", "101641.430000", "101642.430000", "101643.430000", "101644.430000", "101645.430000", "101646.430000", "101647.430000", "101648.430000", "101649.430000", "101650.430000", "101651.430000", "101652.430000", "101653.430000", "101654.430000", "101655.430000", "101656.430000", "101657.430000", "101658.430000", "101659.430000", "101700.430000", "101701.430000", "101702.430000", "101703.430000", "101704.430000", "101705.430000", "101706.430000", "101707.430000", "101708.430000", "101709.430000", "101710.430000", "101711.430000", "101712.430000", "101713.430000", "101714.430000", "101715.430000", "101716.430000", "101717.430000", "101718.430000", "101719.430000", "101720.430000", "101721.430000", "101722.430000", "101723.430000", "101724.430000", "101725.430000", "101726.430000", "101727.430000", "101728.430000", "101729.430000", "101730.430000", "101731.430000", "101732.430000", "101733.430000", "101734.430000", "101735.430000", "101736.430000", "101737.430000", "101738.430000", "101739.430000", "101740.430000", "101741.430000", "101742.430000", "101743.430000", "101744.430000", "101745.430000", "101746.430000", "101747.430000", "101748.430000", "101749.430000", "101750.430000", "101751.430000", "101752.430000", "101753.430000"],
      "ContentTime": ["101428.404000", "101428.407000", "101433.373000", "101433.376000", "101433.379000", "101433.382000", "101433.384000", "101433.397000", "101433.400000", "101438.374000", "101438.377000", "101438.380000", "101438.383000", "101438.386000", "101438.388000", "101438.391000", "101443.373000", "101443.376000", "101443.379000", "101443.382000", "101443.394000", "101443.397000", "101443.400000", "101448.373000", "101448.376000", "101448.379000", "101448.382000", "101448.385000", "101448.387000", "101448.390000", "101453.374000", "101453.377000", "101453.380000", "101453.383000", "101453.399000", "101453.401000", "101453.404000", "101458.373000", "101458.376000", "101458.379000", "101458.398000", "101458.401000", "101458.404000", "101458.406000", "101458.411000", "101503.373000", "101503.376000", "101503.379000", "101503.382000", "101503.385000", "101503.387000", "101503.390000", "101508.373000", "101508.376000", "101508.379000", "101508.382000", "101508.384000", "101508.387000", "101508.390000", "101513.374000", "101513.377000", "101513.380000", "101513.383000", "101513.386000", "101513.388000", "101513.391000", "101518.373000", "101518.376000", "101518.379000", "101518.382000", "101518.384000", "101518.387000", "101518.390000", "101523.373000", "101523.376000", "101523.379000", "101523.382000", "101523.385000", "101523.387000", "101523.390000", "101528.374000", "101528.377000", "101528.380000", "101528.383000", "101528.385000", "101528.388000", "101528.391000", "101533.373000", "101533.376000", "101533.379000", "101533.382000", "101533.384000", "101533.387000", "101533.390000", "101538.373000", "101538.376000", "101538.379000", "101538.382000", "101538.385000", "101538.387000", "101538.390000", "101543.373000", "101543.376000", "101543.379000", "101543.382000", "101543.385000", "101543.387000", "101543.390000", "101548.374000", "101548.377000", "101548.380000", "101548.383000", "101548.386000", "101548.388000", "101548.391000", "101553.373000", "101553.376000", "101553.379000", "101553.382000", "101553.384000", "101553.387000", "101553.390000", "101558.373000", "101558.376000", "101558.379000", "101558.382000", "101558.384000", "101558.387000", "101558.390000", "101603.374000", "101603.377000", "101603.380000", "101603.383000", "101603.385000", "101603.388000", "101603.391000", "101608.373000", "101608.376000", "101608.379000", "101608.381000", "101608.384000", "101608.387000", "101608.390000", "101608.393000", "101613.373000", "101613.376000", "101613.379000", "101613.382000", "101613.384000", "101613.387000", "101613.390000", "101618.373000", "101618.376000", "101618.379000", "101618.382000", "101618.384000", "101618.387000", "101618.390000", "101623.374000", "101623.377000", "101623.392000", "101623.395000", "101623.398000", "101623.400000", "101623.403000", "101628.373000", "101628.376000", "101628.379000", "101628.382000", "101628.385000", "101628.387000", "101628.390000", "101633.373000", "101633.376000", "101633.379000", "101633.382000", "101633.384000", "101633.387000", "101633.390000", "101638.374000", "101638.377000", "101638.380000", "101638.383000", "101638.386000", "101638.388000", "101638.391000", "101643.373000", "101643.376000", "101643.379000", "101643.382000", "101643.385000", "101648.373000", "101648.376000", "101648.379000", "101648.382000", "101648.384000", "101653.373000", "101653.376000", "101653.379000", "101653.382000", "101653.385000", "101658.374000", "101658.377000", "101658.380000", "101658.383000", "101658.386000", "101703.373000", "101703.376000", "101703.379000", "101703.382000", "101703.385000", "101708.373000", "101708.376000", "101708.379000", "101708.382000", "101708.384000", "101713.374000", "101713.377000", "101713.380000", "101713.383000", "101713.385000", "101718.373000", "101718.376000", "101718.379000", "101718.382000", "101718.385000", "101723.373000", "101723.376000", "101723.379000", "101723.382000", "101723.385000", "101728.373000", "101728.376000", "101728.379000", "101728.382000", "101728.385000", "101733.374000", "101733.377000", "101733.380000", "101733.383000", "101733.386000", "101738.373000", "101738.376000", "101738.379000", "101738.382000", "101738.384000", "101743.373000", "101743.376000", "101743.379000", "101743.382000", "101743.385000", "101748.374000", "101748.377000", "101748.380000", "101748.383000", "101748.386000", "101753.373000", "101753.376000", "101753.379000", "101753.382000", "101753.385000", "101755.619000", "101755.622000", "101755.625000"],
      "InstanceCreationTime": ["101428.404000", "101428.407000", "101433.373000", "101433.376000", "101433.379000", "101433.382000", "101433.384000", "101433.397000", "101433.400000", "101438.374000", "101438.377000", "101438.380000", "101438.383000", "101438.386000", "101438.388000", "101438.391000", "101443.373000", "101443.376000", "101443.379000", "101443.382000", "101443.394000", "101443.397000", "101443.400000", "101448.373000", "101448.376000", "101448.379000", "101448.382000", "101448.385000", "101448.387000", "101448.390000", "101453.374000", "101453.377000", "101453.380000", "101453.383000", "101453.399000", "101453.401000", "101453.404000", "101458.373000", "101458.376000", "101458.379000", "101458.398000", "101458.401000", "101458.404000", "101458.406000", "101458.411000", "101503.373000", "101503.376000", "101503.379000", "101503.382000", "101503.385000", "101503.387000", "101503.390000", "101508.373000", "101508.376000", "101508.379000", "101508.382000", "101508.384000", "101508.387000", "101508.390000", "101513.374000", "101513.377000", "101513.380000", "101513.383000", "101513.386000", "101513.388000", "101513.391000", "101518.373000", "101518.376000", "101518.379000", "101518.382000", "101518.384000", "101518.387000", "101518.390000", "101523.373000", "101523.376000", "101523.379000", "101523.382000", "101523.385000", "101523.387000", "101523.390000", "101528.374000", "101528.377000", "101528.380000", "101528.383000", "101528.385000", "101528.388000", "101528.391000", "101533.373000", "101533.376000", "101533.379000", "101533.382000", "101533.384000", "101533.387000", "101533.390000", "101538.373000", "101538.376000", "101538.379000", "101538.382000", "101538.385000", "101538.387000", "101538.390000", "101543.373000", "101543.376000", "101543.379000", "101543.382000", "101543.385000", "101543.387000", "101543.390000", "101548.374000", "101548.377000", "101548.380000", "101548.383000", "101548.386000", "101548.388000", "101548.391000", "101553.373000", "101553.376000", "101553.379000", "101553.382000", "101553.384000", "101553.387000", "101553.390000", "101558.373000", "101558.376000", "101558.379000", "101558.382000", "101558.384000", "101558.387000", "101558.390000", "101603.374000", "101603.377000", "101603.380000", "101603.383000", "101603.385000", "101603.388000", "101603.391000", "101608.373000", "101608.376000", "101608.379000", "101608.381000", "101608.384000", "101608.387000", "101608.390000", "101608.393000", "101613.373000", "101613.376000", "101613.379000", "101613.382000", "101613.384000", "101613.387000", "101613.390000", "101618.373000", "101618.376000", "101618.379000", "101618.382000", "101618.384000", "101618.387000", "101618.390000", "101623.374000", "101623.377000", "101623.392000", "101623.395000", "101623.398000", "101623.400000", "101623.403000", "101628.373000", "101628.376000", "101628.379000", "101628.382000", "101628.385000", "101628.387000", "101628.390000", "101633.373000", "101633.376000", "101633.379000", "101633.382000", "101633.384000", "101633.387000", "101633.390000", "101638.374000", "101638.377000", "101638.380000", "101638.383000", "101638.386000", "101638.388000", "101638.391000", "101643.373000", "101643.376000", "101643.379000", "101643.382000", "101643.385000", "101648.373000", "101648.376000", "101648.379000", "101648.382000", "101648.384000", "101653.373000", "101653.376000", "101653.379000", "101653.382000", "101653.385000", "101658.374000", "101658.377000", "101658.380000", "101658.383000", "101658.386000", "101703.373000", "101703.376000", "101703.379000", "101703.382000", "101703.385000", "101708.373000", "101708.376000", "101708.379000", "101708.382000", "101708.384000", "101713.374000", "101713.377000", "101713.380000", "101713.383000", "101713.385000", "101718.373000", "101718.376000", "101718.379000", "101718.382000", "101718.385000", "101723.373000", "101723.376000", "101723.379000", "101723.382000", "101723.385000", "101728.373000", "101728.376000", "101728.379000", "101728.382000", "101728.385000", "101733.374000", "101733.377000", "101733.380000", "101733.383000", "101733.386000", "101738.373000", "101738.376000", "101738.379000", "101738.382000", "101738.384000", "101743.373000", "101743.376000", "101743.379000", "101743.382000", "101743.385000", "101748.374000", "101748.377000", "101748.380000", "101748.383000", "101748.386000", "101753.373000", "101753.376000", "101753.379000", "101753.382000", "101753.385000", "101755.619000", "101755.622000", "101755.625000"],
      "InstanceNumber": [1, 2, 3, 4, 5, 6, 7, 8, 9, 10, 11, 12, 13, 14, 15, 16, 17, 18, 19, 20, 21, 22, 23, 24, 25, 26, 27, 28, 29, 30, 31, 32, 33, 34, 35, 36, 37, 38, 39, 40, 41, 42, 43, 44, 45, 46, 47, 48, 49, 50, 51, 52, 53, 54, 55, 56, 57, 58, 59, 60, 61, 62, 63, 64, 65, 66, 67, 68, 69, 70, 71, 72, 73, 74, 75, 76, 77, 78, 79, 80, 81, 82, 83, 84, 85, 86, 87, 88, 89, 90, 91, 92, 93, 94, 95, 96, 97, 98, 99, 100, 101, 102, 103, 104, 105, 106, 107, 108, 109, 110, 111, 112, 113, 114, 115, 116, 117, 118, 119, 120, 121, 122, 123, 124, 125, 126, 127, 128, 129, 130, 131, 132, 133, 134, 135, 136, 137, 138, 139, 140, 141, 142, 143, 144, 145, 146, 147, 148, 149, 150, 151, 152, 153, 154, 155, 156, 157, 158, 159, 160, 161, 162, 163, 164, 165, 166, 167, 168, 169, 170, 171, 172, 173, 174, 175, 176, 177, 178, 179, 180, 181, 182, 183, 184, 185, 186, 187, 188, 189, 190, 191, 192, 193, 194, 195, 196, 197, 198, 199, 200, 201, 202, 203, 204, 205, 206, 207, 208, 209, 210, 211, 212, 213, 214, 215, 216, 217, 218, 219, 220, 221, 222, 223, 224, 225, 226, 227, 228, 229, 230, 231, 232, 233, 234, 235, 236, 237, 238, 239, 240, 241, 242, 243, 244, 245, 246, 247, 248, 249, 250, 251, 252, 253, 254, 255, 256, 257, 258, 259, 260, 261, 262, 263, 264],
      "LargestImagePixelValue": [45139, 43237, 42386, 42044, 41580, 41772, 41608, 41566, 41795, 41736, 41031, 42093, 41210, 42048, 41720, 41645, 41250, 42197, 41645, 41258, 42416, 41287, 42031, 41890, 42006, 41910, 41221, 42251, 41340, 41866, 41700, 42190, 42135, 41490, 42045, 41324, 42066, 41612, 41914, 42157, 41603, 42347, 42117, 41743, 42251, 41228, 42087, 41902, 41959, 41654, 41803, 42162, 41256, 41604, 41455, 41774, 41764, 41853, 41074, 42360, 41377, 42524, 41811, 42338, 42222, 41629, 41541, 41541, 41755, 41423, 41520, 41237, 41456, 42005, 41692, 41628, 41850, 41329, 41626, 41670, 41599, 41869, 41778, 42008, 41991, 41993, 41252, 41542, 41447, 42035, 41361, 41854, 41741, 42207, 42088, 42111, 42161, 42755, 42030, 42448, 42247, 41565, 42243, 41671, 42693, 42123, 41786, 42416, 41779, 42540, 41542, 41894, 41786, 42378, 41686, 42184, 41873, 41413, 42245, 42074, 41921, 41734, 42644, 42417, 41813, 42557, 41732, 42516, 41685, 42093, 41718, 41887, 41941, 41561, 42088, 41708, 41872, 41792, 41767, 41488, 41697, 41891, 41547, 41831, 41895, 41837, 41838, 41777, 42006, 41457, 42666, 42088, 42105, 42392, 42295, 42350, 43044, 42592, 41910, 42958, 41712, 43067, 41937, 42602, 42685, 41956, 41833, 41536, 42036, 41945, 41772, 42618, 42047, 41692, 42164, 42239, 41427, 42524, 42135, 42328, 42819, 41398, 42041, 42351, 41800, 42447, 41857, 42910, 42475, 41978, 42392, 42883, 42583, 41820, 43002, 42139, 42956, 42718, 41797, 42471, 42274, 42910, 42285, 42788, 43081, 42171, 41813, 42888, 42828, 41877, 42702, 43305, 42684, 42545, 42489, 42669, 42809, 43074, 42260, 42589, 42005, 42563, 42061, 42020, 41900, 42506, 41859, 42685, 41995, 42539, 42367, 42185, 42096, 42374, 42687, 42247, 42537, 42234, 42413, 42029, 42729, 41725, 42182, 42311, 42634, 41873, 42715, 42117, 42769, 42233, 42199, 42215, 42182, 42378, 42119, 41391, 42365, 42017, 42344, 42390, 41409, 42138, 41592, 42602],
      "WindowCenter": [10430.0, 10363.0, 10336.0, 10334.0, 10345.0, 10351.0, 10348.0, 10345.0, 10338.0, 10324.0, 10305.0, 10313.0, 10304.0, 10326.0, 10331.0, 10338.0, 10333.0, 10337.0, 10325.0, 10332.0, 10349.0, 10344.0, 10361.0, 10360.0, 10360.0, 10353.0, 10336.0, 10349.0, 10341.0, 10358.0, 10353.0, 10359.0, 10363.0, 10355.0, 10352.0, 10348.0, 10359.0, 10367.0, 10377.0, 10383.0, 10378.0, 10376.0, 10367.0, 10350.0, 10351.0, 10337.0, 10337.0, 10337.0, 10333.0, 10332.0, 10338.0, 10337.0, 10329.0, 10326.0, 10326.0, 10337.0, 10331.0, 10330.0, 10325.0, 10327.0, 10317.0, 10326.0, 10316.0, 10319.0, 10325.0, 10315.0, 10322.0, 10318.0, 10329.0, 10326.0, 10332.0, 10340.0, 10340.0, 10339.0, 10331.0, 10324.0, 10326.0, 10325.0, 10337.0, 10355.0, 10361.0, 10368.0, 10362.0, 10353.0, 10351.0, 10345.0, 10329.0, 10331.0, 10326.0, 10327.0, 10324.0, 10329.0, 10337.0, 10350.0, 10350.0, 10346.0, 10343.0, 10342.0, 10331.0, 10335.0, 10336.0, 10338.0, 10350.0, 10347.0, 10357.0, 10350.0, 10339.0, 10341.0, 10331.0, 10333.0, 10324.0, 10328.0, 10334.0, 10356.0, 10355.0, 10366.0, 10360.0, 10348.0, 10351.0, 10348.0, 10349.0, 10343.0, 10360.0, 10358.0, 10348.0, 10351.0, 10334.0, 10334.0, 10317.0, 10314.0, 10309.0, 10322.0, 10328.0, 10331.0, 10330.0, 10318.0, 10320.0, 10317.0, 10320.0, 10329.0, 10323.0, 10329.0, 10329.0, 10323.0, 10324.0, 10316.0, 10309.0, 10307.0, 10314.0, 10320.0, 10339.0, 10348.0, 10359.0, 10372.0, 10369.0, 10356.0, 10356.0, 10335.0, 10317.0, 10325.0, 10315.0, 10330.0, 10316.0, 10320.0, 10324.0, 10317.0, 10314.0, 10314.0, 10321.0, 10322.0, 10327.0, 10334.0, 10323.0, 10322.0, 10322.0, 10319.0, 10306.0, 10314.0, 10311.0, 10318.0, 10324.0, 10317.0, 10323.0, 10328.0, 10328.0, 10328.0, 10330.0, 10338.0, 10346.0, 10354.0, 10353.0, 10351.0, 10343.0, 10326.0, 10323.0, 10310.0, 10317.0, 10312.0, 10309.0, 10307.0, 10313.0, 10323.0, 10315.0, 10311.0, 10316.0, 10307.0, 10322.0, 10341.0, 10349.0, 10339.0, 10323.0, 10325.0, 10315.0, 10312.0, 10319.0, 10333.0, 10342.0, 10359.0, 10346.0, 10344.0, 10330.0, 10333.0, 10320.0, 10319.0, 10309.0, 10312.0, 10306.0, 10324.0, 10322.0, 10335.0, 10332.0, 10330.0, 10328.0, 10324.0, 10322.0, 10315.0, 10313.0, 10302.0, 10304.0, 10301.0, 10318.0, 10312.0, 10323.0, 10322.0, 10323.0, 10308.0, 10312.0, 10304.0, 10311.0, 10302.0, 10313.0, 10313.0, 10316.0, 10322.0, 10323.0, 10313.0, 10315.0, 10315.0, 10313.0, 10307.0, 10298.0, 10307.0, 10296.0, 10304.0],
      "WindowWidth": [22687.0, 22490.0, 22404.0, 22384.0, 22402.0, 22413.0, 22405.0, 22396.0, 22377.0, 22345.0, 22300.0, 22312.0, 22294.0, 22345.0, 22359.0, 22375.0, 22365.0, 22369.0, 22345.0, 22362.0, 22400.0, 22393.0, 22431.0, 22430.0, 22431.0, 22411.0, 22375.0, 22401.0, 22384.0, 22422.0, 22412.0, 22426.0, 22432.0, 22417.0, 22409.0, 22400.0, 22425.0, 22447.0, 22470.0, 22487.0, 22476.0, 22470.0, 22444.0, 22406.0, 22403.0, 22372.0, 22370.0, 22368.0, 22361.0, 22360.0, 22372.0, 22371.0, 22352.0, 22345.0, 22345.0, 22368.0, 22354.0, 22354.0, 22341.0, 22342.0, 22324.0, 22340.0, 22319.0, 22324.0, 22338.0, 22319.0, 22335.0, 22327.0, 22352.0, 22348.0, 22363.0, 22382.0, 22380.0, 22378.0, 22359.0, 22343.0, 22345.0, 22346.0, 22374.0, 22417.0, 22434.0, 22450.0, 22435.0, 22412.0, 22405.0, 22390.0, 22358.0, 22357.0, 22343.0, 22346.0, 22340.0, 22351.0, 22370.0, 22400.0, 22402.0, 22394.0, 22384.0, 22379.0, 22356.0, 22366.0, 22369.0, 22375.0, 22403.0, 22399.0, 22420.0, 22404.0, 22381.0, 22380.0, 22358.0, 22359.0, 22341.0, 22351.0, 22366.0, 22415.0, 22418.0, 22443.0, 22428.0, 22403.0, 22406.0, 22398.0, 22400.0, 22391.0, 22427.0, 22423.0, 22404.0, 22404.0, 22366.0, 22361.0, 22322.0, 22313.0, 22301.0, 22332.0, 22347.0, 22358.0, 22353.0, 22328.0, 22329.0, 22320.0, 22327.0, 22348.0, 22337.0, 22349.0, 22350.0, 22339.0, 22342.0, 22322.0, 22304.0, 22300.0, 22314.0, 22329.0, 22372.0, 22393.0, 22425.0, 22455.0, 22449.0, 22420.0, 22412.0, 22360.0, 22321.0, 22334.0, 22316.0, 22346.0, 22316.0, 22326.0, 22334.0, 22319.0, 22312.0, 22313.0, 22329.0, 22332.0, 22340.0, 22355.0, 22332.0, 22329.0, 22330.0, 22321.0, 22293.0, 22309.0, 22305.0, 22321.0, 22335.0, 22323.0, 22338.0, 22346.0, 22347.0, 22349.0, 22353.0, 22369.0, 22390.0, 22410.0, 22411.0, 22405.0, 22385.0, 22347.0, 22333.0, 22301.0, 22317.0, 22305.0, 22299.0, 22295.0, 22310.0, 22331.0, 22314.0, 22303.0, 22313.0, 22295.0, 22330.0, 22377.0, 22396.0, 22371.0, 22335.0, 22333.0, 22310.0, 22305.0, 22321.0, 22356.0, 22378.0, 22419.0, 22392.0, 22384.0, 22351.0, 22354.0, 22324.0, 22323.0, 22300.0, 22305.0, 22294.0, 22331.0, 22333.0, 22363.0, 22355.0, 22350.0, 22346.0, 22336.0, 22328.0, 22313.0, 22305.0, 22282.0, 22284.0, 22281.0, 22320.0, 22308.0, 22333.0, 22331.0, 22330.0, 22297.0, 22303.0, 22283.0, 22297.0, 22281.0, 22308.0, 22306.0, 22313.0, 22328.0, 22330.0, 22311.0, 22315.0, 22315.0, 22306.0, 22294.0, 22275.0, 22293.0, 22269.0, 22286.0]
    },
    "slices": {}
  }
}