{
  "AcquisitionMatrixPE": 104,
  "AcquisitionNumber": 1,
  "AcquisitionTime": "10:32:41.467500",
  "BandwidthPerPixelPhaseEncode": 16.578,
  "BaseResolution": 104,
  "BodyPartExamined": "BRAIN",
  "ConsistencyInfo": "N4_VE11C_LATEST_20160120",
  "ConversionSoftware": "dcm2niix",
  "ConversionSoftwareVersion": "v1.0.20190410  GCC6.3.0",
  "DerivedVendorReportedEchoSpacing": 0.000580009,
  "DeviceSerialNumber": "166018",
  "DwellTime": 2.1e-06,
  "EchoTime": 0.037,
  "EchoTrainLength": 104,
  "EffectiveEchoSpacing": 0.000580009,
  "FlipAngle": 68,
  "ImageComments": "Unaliased_MB6_PE3_LB",
  "ImageOrientationPatientDICOM": [0.995442, 0.0831316, 0.0467403, -0.0820152, 0.996309, -0.0253203],
  "ImageType": [
    "ORIGINAL",
    "PRIMARY",
    "M",
    "MB",
    "ND",
    "MOSAIC"
],
  "ImagingFrequency": 123.191,
  "InPlanePhaseEncodingDirectionDICOM": "COL",
  "InstitutionAddress": "Washington_Place_6_NYC_NYC_US_10003",
  "InstitutionName": "NYU_Center_for_Brain_Imaging",
  "InstitutionalDepartmentName": "Department",
  "MRAcquisitionType": "2D",
  "MagneticFieldStrength": 3,
  "Manufacturer": "Siemens",
  "ManufacturersModelName": "Prisma",
  "Modality": "MR",
  "MultibandAccelerationFactor": 6,
  "PartialFourier": 1,
  "PatientPosition": "HFS",
  "PercentPhaseFOV": 100,
  "PhaseEncodingDirection": "j",
  "PhaseEncodingSteps": 104,
  "PhaseResolution": 1,
  "PixelBandwidth": 2290,
  "ProcedureStepDescription": "Investigators_Winawer",
  "ProtocolName": "task-sfprescaled_cmrr_mbepi_s6_2mm_66sl_PA_TR1.0",
  "PulseSequenceDetails": "%CustomerSeq%_cmrr_mbep2d_bold",
  "ReceiveCoilActiveElements": "HC1-7",
  "ReceiveCoilName": "HeadNeck_64",
  "ReconMatrixPE": 104,
  "RepetitionTime": 1,
  "SAR": 0.0685127,
  "ScanOptions": "FS",
  "ScanningSequence": "EP",
  "SequenceName": "epfid2d1_104",
  "SequenceVariant": "SK_SS",
  "SeriesDescription": "task-sfprescaled_cmrr_mbepi_s6_2mm_66sl_PA_TR1.0",
  "SeriesNumber": 16,
  "ShimSetting": [277, -12593, -8545, 325, -6, -111, -35, 26],
  "SliceThickness": 2,
  "SliceTiming": [0, 0.535, 0.0875, 0.6225, 0.1775, 0.7125, 0.2675, 0.8025, 0.355, 0.89, 0.445, 0, 0.535, 0.0875, 0.6225, 0.1775, 0.7125, 0.2675, 0.8025, 0.355, 0.89, 0.445, 0, 0.535, 0.0875, 0.6225, 0.1775, 0.7125, 0.2675, 0.8025, 0.355, 0.89, 0.445, 0, 0.535, 0.0875, 0.6225, 0.1775, 0.7125, 0.2675, 0.8025, 0.355, 0.89, 0.445, 0, 0.535, 0.0875, 0.6225, 0.1775, 0.7125, 0.2675, 0.8025, 0.355, 0.89, 0.445, 0, 0.535, 0.0875, 0.6225, 0.1775, 0.7125, 0.2675, 0.8025, 0.355, 0.89, 0.445],
  "SoftwareVersions": "syngo_MR_E11",
  "SpacingBetweenSlices": 2,
  "StationName": "AWP166018",
  "TaskName": "sfprescaled",
  "TotalReadoutTime": 0.0597409,
  "TxRefAmp": 203.092,
  "WipMemBlock": "7de05b99-da33-4cf8-aed5-c1e525a8e42a||Sequence: R016 ve11c/master r/8780670; Nov 27 2017 15:05:12 by eja",
  "dcmmeta_affine": [
    [-1.990883708000183, -0.16403035819530487, 0.09734547138214111, 113.74717712402344],
    [-0.16626325249671936, 1.9926187992095947, -0.04274289309978485, -73.30086517333984],
    [0.09348063915967941, 0.05064055323600769, 1.997172236442566, -41.04076385498047],
    [0.0, 0.0, 0.0, 1.0]
],
  "dcmmeta_reorient_transform": [
    [0.0, -1.0, 0.0, 103.0],
    [1.0, 0.0, 0.0, 0.0],
    [0.0, 0.0, 1.0, 0.0],
    [0.0, 0.0, 0.0, 1.0]
],
  "dcmmeta_shape": [104, 104, 66, 264],
  "dcmmeta_slice_dim": 2,
  "dcmmeta_version": 0.6,
  "global": {
    "const": {
      "AccessionNumber": "jv3y3i0c",
  "NumberOfVolumes": 264,
      "AcquisitionMatrix": [104, 0, 0, 104],
      "AngioFlag": "N",
      "BitsAllocated": 16,
      "BitsStored": 16,
      "BodyPartExamined": "BRAIN",
      "Columns": 936,
      "EchoNumbers": 1,
      "EchoTime": 37.0,
      "EchoTrainLength": 104,
      "FlipAngle": 68.0,
      "HighBit": 15,
      "ImageOrientationPatient": [0.99544184899904, 0.08313162831178, 0.04674032130395, -0.0820151813389, 0.99630938650778, -0.0253202761922],
      "ImagePositionPatient": [-856.82303483909, -1030.0337956389, -53.646265343491],
      "ImageType": [
        "ORIGINAL",
        "PRIMARY",
        "M",
        "MB",
        "ND",
        "MOSAIC"
],
      "ImagedNucleus": "1H",
      "ImagingFrequency": 123.191083,
      "InPlanePhaseEncodingDirection": "COL",
      "MRAcquisitionType": "2D",
      "MagneticFieldStrength": 3.0,
      "Manufacturer": "SIEMENS",
      "ManufacturerModelName": "Prisma",
      "Modality": "MR",
      "NumberOfAverages": 1.0,
      "NumberOfPhaseEncodingSteps": 104,
      "PercentPhaseFieldOfView": 100.0,
      "PercentSampling": 100.0,
      "PerformedProcedureStepStartTime": "100021.887000",
      "PhotometricInterpretation": "MONOCHROME2",
      "PixelBandwidth": 2290.0,
      "PixelRepresentation": 0,
      "PixelSpacing": [2.0, 2.0],
      "ProtocolName": "task-sfprescaled_cmrr_mbepi_s6_2mm_66sl_PA_TR1.0",
      "RepetitionTime": 1000.0,
      "Rows": 936,
      "SAR": 0.06851266208846,
      "SamplesPerPixel": 1,
      "ScanOptions": "FS",
      "ScanningSequence": "EP",
      "SequenceName": "epfid2d1_104",
      "SequenceVariant": [
        "SK",
        "SS"
],
      "SeriesDescription": "task-sfprescaled_cmrr_mbepi_s6_2mm_66sl_PA_TR1.0",
      "SeriesNumber": 16,
      "SeriesTime": "103342.037000",
      "SliceLocation": -33.879805977721,
      "SliceThickness": 2.0,
      "SmallestImagePixelValue": 0,
      "SoftwareVersions": "syngo MR E11",
      "SpacingBetweenSlices": 2.0000000256817,
      "SpecificCharacterSet": "ISO_IR 100",
      "StudyID": "1",
      "StudyTime": "100021.836000",
      "TransmitCoilName": "Body",
      "VariableFlipAngleFlag": "N",
      "WindowCenterWidthExplanation": "Algo1",
      "dBdt": 0.0},
    "slices": {}
  },
  "time": {
    "samples": {
      "AcquisitionNumber": [1, 2, 3, 4, 5, 6, 7, 8, 9, 10, 11, 12, 13, 14, 15, 16, 17, 18, 19, 20, 21, 22, 23, 24, 25, 26, 27, 28, 29, 30, 31, 32, 33, 34, 35, 36, 37, 38, 39, 40, 41, 42, 43, 44, 45, 46, 47, 48, 49, 50, 51, 52, 53, 54, 55, 56, 57, 58, 59, 60, 61, 62, 63, 64, 65, 66, 67, 68, 69, 70, 71, 72, 73, 74, 75, 76, 77, 78, 79, 80, 81, 82, 83, 84, 85, 86, 87, 88, 89, 90, 91, 92, 93, 94, 95, 96, 97, 98, 99, 100, 101, 102, 103, 104, 105, 106, 107, 108, 109, 110, 111, 112, 113, 114, 115, 116, 117, 118, 119, 120, 121, 122, 123, 124, 125, 126, 127, 128, 129, 130, 131, 132, 133, 134, 135, 136, 137, 138, 139, 140, 141, 142, 143, 144, 145, 146, 147, 148, 149, 150, 151, 152, 153, 154, 155, 156, 157, 158, 159, 160, 161, 162, 163, 164, 165, 166, 167, 168, 169, 170, 171, 172, 173, 174, 175, 176, 177, 178, 179, 180, 181, 182, 183, 184, 185, 186, 187, 188, 189, 190, 191, 192, 193, 194, 195, 196, 197, 198, 199, 200, 201, 202, 203, 204, 205, 206, 207, 208, 209, 210, 211, 212, 213, 214, 215, 216, 217, 218, 219, 220, 221, 222, 223, 224, 225, 226, 227, 228, 229, 230, 231, 232, 233, 234, 235, 236, 237, 238, 239, 240, 241, 242, 243, 244, 245, 246, 247, 248, 249, 250, 251, 252, 253, 254, 255, 256, 257, 258, 259, 260, 261, 262, 263, 264],
      "AcquisitionTime": ["103241.467500", "103242.467500", "103243.467500", "103244.467500", "103245.467500", "103246.467500", "103247.467500", "103248.467500", "103249.467500", "103250.467500", "103251.467500", "103252.467500", "103253.467500", "103254.467500", "103255.467500", "103256.467500", "103257.467500", "103258.467500", "103259.467500", "103300.467500", "103301.467500", "103302.467500", "103303.467500", "103304.467500", "103305.467500", "103306.467500", "103307.467500", "103308.467500", "103309.467500", "103310.467500", "103311.467500", "103312.467500", "103313.467500", "103314.467500", "103315.467500", "103316.467500", "103317.467500", "103318.467500", "103319.467500", "103320.467500", "103321.467500", "103322.467500", "103323.467500", "103324.467500", "103325.467500", "103326.467500", "103327.467500", "103328.467500", "103329.467500", "103330.467500", "103331.467500", "103332.467500", "103333.467500", "103334.467500", "103335.467500", "103336.467500", "103337.467500", "103338.467500", "103339.467500", "103340.467500", "103341.467500", "103342.467500", "103343.467500", "103344.467500", "103345.467500", "103346.467500", "103347.467500", "103348.467500", "103349.467500", "103350.467500", "103351.467500", "103352.467500", "103353.467500", "103354.467500", "103355.467500", "103356.467500", "103357.467500", "103358.467500", "103359.467500", "103400.467500", "103401.467500", "103402.467500", "103403.467500", "103404.467500", "103405.467500", "103406.467500", "103407.467500", "103408.467500", "103409.467500", "103410.467500", "103411.467500", "103412.467500", "103413.467500", "103414.467500", "103415.467500", "103416.467500", "103417.467500", "103418.467500", "103419.467500", "103420.467500", "103421.467500", "103422.467500", "103423.467500", "103424.467500", "103425.467500", "103426.467500", "103427.467500", "103428.467500", "103429.467500", "103430.467500", "103431.467500", "103432.467500", "103433.467500", "103434.467500", "103435.467500", "103436.467500", "103437.467500", "103438.467500", "103439.467500", "103440.467500", "103441.467500", "103442.467500", "103443.467500", "103444.467500", "103445.467500", "103446.467500", "103447.467500", "103448.467500", "103449.467500", "103450.467500", "103451.467500", "103452.467500", "103453.467500", "103454.467500", "103455.467500", "103456.467500", "103457.467500", "103458.467500", "103459.467500", "103500.467500", "103501.467500", "103502.467500", "103503.467500", "103504.467500", "103505.467500", "103506.467500", "103507.467500", "103508.467500", "103509.467500", "103510.467500", "103511.467500", "103512.467500", "103513.467500", "103514.467500", "103515.467500", "103516.467500", "103517.467500", "103518.467500", "103519.467500", "103520.467500", "103521.467500", "103522.467500", "103523.467500", "103524.467500", "103525.467500", "103526.467500", "103527.467500", "103528.467500", "103529.467500", "103530.467500", "103531.467500", "103532.467500", "103533.467500", "103534.467500", "103535.467500", "103536.467500", "103537.467500", "103538.467500", "103539.467500", "103540.467500", "103541.467500", "103542.467500", "103543.467500", "103544.467500", "103545.467500", "103546.467500", "103547.467500", "103548.467500", "103549.467500", "103550.467500", "103551.467500", "103552.467500", "103553.467500", "103554.467500", "103555.467500", "103556.467500", "103557.467500", "103558.467500", "103559.467500", "103600.467500", "103601.467500", "103602.467500", "103603.467500", "103604.467500", "103605.467500", "103606.467500", "103607.467500", "103608.467500", "103609.467500", "103610.467500", "103611.467500", "103612.467500", "103613.467500", "103614.467500", "103615.467500", "103616.467500", "103617.467500", "103618.467500", "103619.467500", "103620.467500", "103621.467500", "103622.467500", "103623.467500", "103624.467500", "103625.467500", "103626.467500", "103627.467500", "103628.467500", "103629.467500", "103630.467500", "103631.467500", "103632.467500", "103633.467500", "103634.467500", "103635.467500", "103636.467500", "103637.467500", "103638.467500", "103639.467500", "103640.467500", "103641.467500", "103642.467500", "103643.467500", "103644.467500", "103645.467500", "103646.467500", "103647.467500", "103648.467500", "103649.467500", "103650.467500", "103651.467500", "103652.467500", "103653.467500", "103654.467500", "103655.467500", "103656.467500", "103657.467500", "103658.467500", "103659.467500", "103700.467500", "103701.467500", "103702.467500", "103703.467500", "103704.467500"],
      "ContentTime": ["103342.040000", "103342.055000", "103342.058000", "103342.061000", "103342.064000", "103342.067000", "103342.069000", "103347.038000", "103347.041000", "103347.044000", "103347.047000", "103347.050000", "103347.052000", "103347.061000", "103352.039000", "103352.042000", "103352.045000", "103352.048000", "103352.050000", "103352.053000", "103352.056000", "103357.039000", "103357.042000", "103357.045000", "103357.048000", "103357.051000", "103357.054000", "103357.056000", "103402.038000", "103402.041000", "103402.044000", "103402.047000", "103402.050000", "103402.052000", "103402.055000", "103407.039000", "103407.056000", "103407.059000", "103407.061000", "103407.064000", "103407.067000", "103407.070000", "103407.073000", "103412.039000", "103412.042000", "103412.045000", "103412.048000", "103412.051000", "103412.054000", "103412.057000", "103417.038000", "103417.041000", "103417.044000", "103417.047000", "103417.049000", "103417.052000", "103417.055000", "103422.038000", "103422.041000", "103422.044000", "103422.047000", "103422.050000", "103422.053000", "103422.055000", "103427.039000", "103427.042000", "103427.045000", "103427.048000", "103427.051000", "103427.054000", "103427.057000", "103432.039000", "103432.042000", "103432.045000", "103432.048000", "103432.051000", "103432.054000", "103432.056000", "103437.038000", "103437.041000", "103437.044000", "103437.047000", "103437.050000", "103437.052000", "103437.055000", "103442.039000", "103442.042000", "103442.045000", "103442.048000", "103442.051000", "103442.054000", "103442.057000", "103447.039000", "103447.042000", "103447.045000", "103447.048000", "103447.051000", "103447.054000", "103447.056000", "103452.038000", "103452.041000", "103452.044000", "103452.047000", "103452.050000", "103452.053000", "103452.055000", "103457.038000", "103457.041000", "103457.044000", "103457.047000", "103457.050000", "103457.053000", "103457.055000", "103502.039000", "103502.042000", "103502.045000", "103502.048000", "103502.051000", "103502.053000", "103502.056000", "103507.039000", "103507.042000", "103507.045000", "103507.048000", "103507.051000", "103507.054000", "103507.056000", "103512.038000", "103512.041000", "103512.044000", "103512.047000", "103512.050000", "103512.052000", "103512.055000", "103517.039000", "103517.042000", "103517.045000", "103517.048000", "103517.051000", "103517.053000", "103517.056000", "103522.039000", "103522.042000", "103522.045000", "103522.048000", "103522.050000", "103522.053000", "103522.056000", "103522.059000", "103527.038000", "103527.041000", "103527.044000", "103527.047000", "103527.049000", "103527.052000", "103527.055000", "103532.038000", "103532.041000", "103532.044000", "103532.047000", "103532.050000", "103532.053000", "103532.055000", "103537.039000", "103537.042000", "103537.045000", "103537.048000", "103537.051000", "103537.053000", "103537.056000", "103542.039000", "103542.042000", "103542.045000", "103542.048000", "103542.051000", "103542.053000", "103542.056000", "103547.038000", "103547.041000", "103547.044000", "103547.047000", "103547.049000", "103547.052000", "103547.055000", "103552.039000", "103552.042000", "103552.045000", "103552.048000", "103552.051000", "103557.039000", "103557.042000", "103557.045000", "103557.048000", "103557.051000", "103602.038000", "103602.041000", "103602.044000", "103602.047000", "103602.050000", "103607.038000", "103607.041000", "103607.044000", "103607.047000", "103607.050000", "103612.039000", "103612.042000", "103612.045000", "103612.048000", "103612.051000", "103617.039000", "103617.042000", "103617.045000", "103617.048000", "103617.050000", "103622.038000", "103622.041000", "103622.044000", "103622.047000", "103622.050000", "103627.039000", "103627.042000", "103627.045000", "103627.048000", "103627.051000", "103632.039000", "103632.042000", "103632.045000", "103632.048000", "103632.051000", "103637.038000", "103637.041000", "103637.044000", "103637.047000", "103637.049000", "103642.059000", "103642.063000", "103642.065000", "103642.068000", "103642.071000", "103647.039000", "103647.042000", "103647.045000", "103647.048000", "103647.051000", "103652.039000", "103652.042000", "103652.045000", "103652.048000", "103652.051000", "103657.038000", "103657.041000", "103657.044000", "103657.047000", "103657.050000", "103702.039000", "103702.042000", "103702.045000", "103702.048000", "103702.051000", "103706.408000", "103706.411000", "103706.414000", "103706.417000", "103706.420000"],
      "InstanceCreationTime": ["103342.040000", "103342.055000", "103342.058000", "103342.061000", "103342.064000", "103342.067000", "103342.069000", "103347.038000", "103347.041000", "103347.044000", "103347.047000", "103347.050000", "103347.052000", "103347.061000", "103352.039000", "103352.042000", "103352.045000", "103352.048000", "103352.050000", "103352.053000", "103352.056000", "103357.039000", "103357.042000", "103357.045000", "103357.048000", "103357.051000", "103357.054000", "103357.056000", "103402.038000", "103402.041000", "103402.044000", "103402.047000", "103402.050000", "103402.052000", "103402.055000", "103407.039000", "103407.056000", "103407.059000", "103407.061000", "103407.064000", "103407.067000", "103407.070000", "103407.073000", "103412.039000", "103412.042000", "103412.045000", "103412.048000", "103412.051000", "103412.054000", "103412.057000", "103417.038000", "103417.041000", "103417.044000", "103417.047000", "103417.049000", "103417.052000", "103417.055000", "103422.038000", "103422.041000", "103422.044000", "103422.047000", "103422.050000", "103422.053000", "103422.055000", "103427.039000", "103427.042000", "103427.045000", "103427.048000", "103427.051000", "103427.054000", "103427.057000", "103432.039000", "103432.042000", "103432.045000", "103432.048000", "103432.051000", "103432.054000", "103432.056000", "103437.038000", "103437.041000", "103437.044000", "103437.047000", "103437.050000", "103437.052000", "103437.055000", "103442.039000", "103442.042000", "103442.045000", "103442.048000", "103442.051000", "103442.054000", "103442.057000", "103447.039000", "103447.042000", "103447.045000", "103447.048000", "103447.051000", "103447.054000", "103447.056000", "103452.038000", "103452.041000", "103452.044000", "103452.047000", "103452.050000", "103452.053000", "103452.055000", "103457.038000", "103457.041000", "103457.044000", "103457.047000", "103457.050000", "103457.053000", "103457.055000", "103502.039000", "103502.042000", "103502.045000", "103502.048000", "103502.051000", "103502.053000", "103502.056000", "103507.039000", "103507.042000", "103507.045000", "103507.048000", "103507.051000", "103507.054000", "103507.056000", "103512.038000", "103512.041000", "103512.044000", "103512.047000", "103512.050000", "103512.052000", "103512.055000", "103517.039000", "103517.042000", "103517.045000", "103517.048000", "103517.051000", "103517.053000", "103517.056000", "103522.039000", "103522.042000", "103522.045000", "103522.048000", "103522.050000", "103522.053000", "103522.056000", "103522.059000", "103527.038000", "103527.041000", "103527.044000", "103527.047000", "103527.049000", "103527.052000", "103527.055000", "103532.038000", "103532.041000", "103532.044000", "103532.047000", "103532.050000", "103532.053000", "103532.055000", "103537.039000", "103537.042000", "103537.045000", "103537.048000", "103537.051000", "103537.053000", "103537.056000", "103542.039000", "103542.042000", "103542.045000", "103542.048000", "103542.051000", "103542.053000", "103542.056000", "103547.038000", "103547.041000", "103547.044000", "103547.047000", "103547.049000", "103547.052000", "103547.055000", "103552.039000", "103552.042000", "103552.045000", "103552.048000", "103552.051000", "103557.039000", "103557.042000", "103557.045000", "103557.048000", "103557.051000", "103602.038000", "103602.041000", "103602.044000", "103602.047000", "103602.050000", "103607.038000", "103607.041000", "103607.044000", "103607.047000", "103607.050000", "103612.039000", "103612.042000", "103612.045000", "103612.048000", "103612.051000", "103617.039000", "103617.042000", "103617.045000", "103617.048000", "103617.050000", "103622.038000", "103622.041000", "103622.044000", "103622.047000", "103622.050000", "103627.039000", "103627.042000", "103627.045000", "103627.048000", "103627.051000", "103632.039000", "103632.042000", "103632.045000", "103632.048000", "103632.051000", "103637.038000", "103637.041000", "103637.044000", "103637.047000", "103637.049000", "103642.059000", "103642.063000", "103642.065000", "103642.068000", "103642.071000", "103647.039000", "103647.042000", "103647.045000", "103647.048000", "103647.051000", "103652.039000", "103652.042000", "103652.045000", "103652.048000", "103652.051000", "103657.038000", "103657.041000", "103657.044000", "103657.047000", "103657.050000", "103702.039000", "103702.042000", "103702.045000", "103702.048000", "103702.051000", "103706.408000", "103706.411000", "103706.414000", "103706.417000", "103706.420000"],
      "InstanceNumber": [1, 2, 3, 4, 5, 6, 7, 8, 9, 10, 11, 12, 13, 14, 15, 16, 17, 18, 19, 20, 21, 22, 23, 24, 25, 26, 27, 28, 29, 30, 31, 32, 33, 34, 35, 36, 37, 38, 39, 40, 41, 42, 43, 44, 45, 46, 47, 48, 49, 50, 51, 52, 53, 54, 55, 56, 57, 58, 59, 60, 61, 62, 63, 64, 65, 66, 67, 68, 69, 70, 71, 72, 73, 74, 75, 76, 77, 78, 79, 80, 81, 82, 83, 84, 85, 86, 87, 88, 89, 90, 91, 92, 93, 94, 95, 96, 97, 98, 99, 100, 101, 102, 103, 104, 105, 106, 107, 108, 109, 110, 111, 112, 113, 114, 115, 116, 117, 118, 119, 120, 121, 122, 123, 124, 125, 126, 127, 128, 129, 130, 131, 132, 133, 134, 135, 136, 137, 138, 139, 140, 141, 142, 143, 144, 145, 146, 147, 148, 149, 150, 151, 152, 153, 154, 155, 156, 157, 158, 159, 160, 161, 162, 163, 164, 165, 166, 167, 168, 169, 170, 171, 172, 173, 174, 175, 176, 177, 178, 179, 180, 181, 182, 183, 184, 185, 186, 187, 188, 189, 190, 191, 192, 193, 194, 195, 196, 197, 198, 199, 200, 201, 202, 203, 204, 205, 206, 207, 208, 209, 210, 211, 212, 213, 214, 215, 216, 217, 218, 219, 220, 221, 222, 223, 224, 225, 226, 227, 228, 229, 230, 231, 232, 233, 234, 235, 236, 237, 238, 239, 240, 241, 242, 243, 244, 245, 246, 247, 248, 249, 250, 251, 252, 253, 254, 255, 256, 257, 258, 259, 260, 261, 262, 263, 264],
      "LargestImagePixelValue": [43205, 42262, 41098, 40668, 40594, 40132, 40529, 39958, 40144, 40743, 40143, 40308, 40152, 40431, 39968, 40055, 40130, 40214, 40316, 40373, 39779, 40005, 39994, 39699, 39834, 40156, 39978, 40471, 40536, 40773, 40100, 40373, 39893, 40453, 39839, 40210, 39954, 39458, 38913, 39808, 40040, 39881, 40095, 40330, 40560, 40091, 40394, 40192, 40282, 40297, 40378, 40248, 40253, 40437, 40492, 40230, 40711, 40497, 40060, 40555, 40552, 40374, 40229, 40640, 40611, 40232, 40628, 40594, 40433, 40083, 40482, 40219, 39891, 40190, 40414, 40149, 40606, 40675, 40435, 40406, 40549, 40211, 40477, 40598, 40369, 40627, 40488, 40304, 40792, 40646, 40406, 40609, 40489, 40579, 40677, 40157, 40638, 40583, 40645, 40582, 40319, 40412, 40892, 40305, 41008, 40832, 40538, 40680, 41094, 40658, 41005, 40661, 40778, 40525, 40584, 40593, 40678, 40509, 40345, 40144, 40713, 40333, 40817, 40497, 40489, 40577, 40564, 40199, 40296, 40173, 40234, 40445, 40831, 40600, 40771, 41004, 40739, 41140, 40397, 40574, 40507, 40537, 40522, 40566, 40533, 41043, 40651, 40707, 40691, 40646, 40207, 40304, 39916, 40202, 40170, 39928, 40322, 40649, 40144, 40298, 40509, 40381, 40008, 40325, 40566, 40363, 40462, 40757, 40724, 40465, 40220, 40466, 39906, 40293, 39720, 39980, 40324, 40227, 40326, 40426, 40243, 40458, 40390, 40554, 40726, 40630, 40431, 40490, 40313, 40759, 40727, 40531, 40986, 41078, 40998, 41386, 40894, 40726, 40707, 40493, 41196, 40474, 40835, 40722, 41148, 40529, 40624, 40857, 40677, 40978, 40769, 40985, 40732, 41017, 40921, 40929, 40563, 40421, 40553, 40551, 40420, 40949, 40572, 41209, 40986, 40862, 40886, 40411, 40826, 40713, 40446, 40346, 40526, 40434, 40623, 40517, 40472, 40388, 40218, 40269, 40596, 40518, 40339, 40644, 40508, 40521, 40144, 40261, 40361, 40490, 40553, 40327, 39991, 40503, 40322, 40297, 40029, 40379, 39829, 40744, 40170, 40598, 40490, 40379],
      "WindowCenter": [10315.0, 10276.0, 10246.0, 10235.0, 10232.0, 10220.0, 10216.0, 10211.0, 10215.0, 10222.0, 10221.0, 10228.0, 10231.0, 10233.0, 10222.0, 10215.0, 10213.0, 10211.0, 10211.0, 10225.0, 10232.0, 10243.0, 10242.0, 10226.0, 10218.0, 10213.0, 10208.0, 10220.0, 10223.0, 10225.0, 10221.0, 10224.0, 10215.0, 10223.0, 10222.0, 10225.0, 10227.0, 10218.0, 10205.0, 10202.0, 10216.0, 10207.0, 10206.0, 10211.0, 10223.0, 10219.0, 10218.0, 10204.0, 10208.0, 10202.0, 10195.0, 10186.0, 10180.0, 10178.0, 10191.0, 10184.0, 10181.0, 10183.0, 10179.0, 10196.0, 10197.0, 10191.0, 10193.0, 10197.0, 10192.0, 10200.0, 10207.0, 10220.0, 10225.0, 10235.0, 10240.0, 10233.0, 10222.0, 10215.0, 10210.0, 10206.0, 10216.0, 10222.0, 10224.0, 10225.0, 10230.0, 10231.0, 10226.0, 10225.0, 10231.0, 10226.0, 10229.0, 10226.0, 10226.0, 10223.0, 10224.0, 10232.0, 10235.0, 10233.0, 10232.0, 10221.0, 10231.0, 10230.0, 10223.0, 10223.0, 10213.0, 10215.0, 10221.0, 10223.0, 10227.0, 10233.0, 10231.0, 10230.0, 10228.0, 10224.0, 10221.0, 10221.0, 10224.0, 10221.0, 10229.0, 10236.0, 10230.0, 10230.0, 10230.0, 10224.0, 10220.0, 10223.0, 10241.0, 10238.0, 10228.0, 10223.0, 10218.0, 10210.0, 10201.0, 10187.0, 10180.0, 10184.0, 10186.0, 10189.0, 10190.0, 10195.0, 10197.0, 10208.0, 10201.0, 10207.0, 10206.0, 10198.0, 10191.0, 10189.0, 10190.0, 10196.0, 10204.0, 10220.0, 10230.0, 10236.0, 10240.0, 10239.0, 10234.0, 10234.0, 10232.0, 10226.0, 10232.0, 10231.0, 10225.0, 10233.0, 10231.0, 10233.0, 10229.0, 10235.0, 10238.0, 10228.0, 10237.0, 10240.0, 10239.0, 10241.0, 10241.0, 10240.0, 10237.0, 10240.0, 10231.0, 10232.0, 10230.0, 10240.0, 10236.0, 10234.0, 10235.0, 10241.0, 10234.0, 10240.0, 10236.0, 10230.0, 10226.0, 10227.0, 10220.0, 10209.0, 10195.0, 10195.0, 10192.0, 10192.0, 10200.0, 10211.0, 10214.0, 10216.0, 10223.0, 10217.0, 10222.0, 10217.0, 10215.0, 10215.0, 10219.0, 10203.0, 10196.0, 10200.0, 10196.0, 10192.0, 10187.0, 10198.0, 10206.0, 10211.0, 10215.0, 10217.0, 10217.0, 10216.0, 10216.0, 10205.0, 10202.0, 10212.0, 10209.0, 10218.0, 10226.0, 10236.0, 10238.0, 10232.0, 10231.0, 10230.0, 10219.0, 10215.0, 10214.0, 10210.0, 10220.0, 10230.0, 10233.0, 10238.0, 10234.0, 10232.0, 10225.0, 10217.0, 10216.0, 10223.0, 10222.0, 10230.0, 10233.0, 10233.0, 10234.0, 10235.0, 10226.0, 10227.0, 10229.0, 10233.0, 10223.0, 10222.0, 10208.0, 10204.0, 10187.0, 10194.0, 10189.0, 10199.0, 10195.0, 10195.0],
      "WindowWidth": [22373.0, 22243.0, 22153.0, 22113.0, 22100.0, 22069.0, 22054.0, 22043.0, 22049.0, 22064.0, 22062.0, 22079.0, 22086.0, 22087.0, 22065.0, 22049.0, 22040.0, 22036.0, 22036.0, 22070.0, 22092.0, 22114.0, 22115.0, 22079.0, 22058.0, 22043.0, 22033.0, 22056.0, 22063.0, 22068.0, 22060.0, 22065.0, 22047.0, 22061.0, 22060.0, 22065.0, 22074.0, 22056.0, 22024.0, 22014.0, 22043.0, 22024.0, 22022.0, 22032.0, 22060.0, 22053.0, 22048.0, 22018.0, 22024.0, 22012.0, 21995.0, 21971.0, 21959.0, 21955.0, 21983.0, 21969.0, 21959.0, 21961.0, 21958.0, 21993.0, 21995.0, 21984.0, 21988.0, 21995.0, 21987.0, 22004.0, 22022.0, 22050.0, 22067.0, 22091.0, 22103.0, 22087.0, 22063.0, 22044.0, 22033.0, 22022.0, 22041.0, 22058.0, 22063.0, 22068.0, 22080.0, 22081.0, 22068.0, 22068.0, 22078.0, 22070.0, 22075.0, 22070.0, 22069.0, 22061.0, 22066.0, 22082.0, 22090.0, 22086.0, 22083.0, 22061.0, 22081.0, 22078.0, 22063.0, 22060.0, 22039.0, 22042.0, 22056.0, 22061.0, 22071.0, 22083.0, 22081.0, 22078.0, 22073.0, 22063.0, 22057.0, 22056.0, 22062.0, 22056.0, 22075.0, 22090.0, 22079.0, 22078.0, 22077.0, 22063.0, 22053.0, 22060.0, 22099.0, 22094.0, 22071.0, 22059.0, 22047.0, 22030.0, 22008.0, 21977.0, 21959.0, 21967.0, 21971.0, 21979.0, 21982.0, 21992.0, 21999.0, 22021.0, 22009.0, 22022.0, 22020.0, 22000.0, 21983.0, 21980.0, 21981.0, 21993.0, 22015.0, 22051.0, 22079.0, 22094.0, 22105.0, 22103.0, 22090.0, 22090.0, 22083.0, 22072.0, 22084.0, 22082.0, 22071.0, 22087.0, 22081.0, 22087.0, 22079.0, 22091.0, 22096.0, 22077.0, 22094.0, 22102.0, 22102.0, 22106.0, 22107.0, 22106.0, 22099.0, 22103.0, 22085.0, 22088.0, 22084.0, 22103.0, 22095.0, 22091.0, 22091.0, 22104.0, 22091.0, 22102.0, 22091.0, 22078.0, 22070.0, 22069.0, 22052.0, 22026.0, 21996.0, 21994.0, 21985.0, 21987.0, 22006.0, 22028.0, 22039.0, 22046.0, 22062.0, 22047.0, 22057.0, 22044.0, 22038.0, 22039.0, 22045.0, 22012.0, 21995.0, 22002.0, 21992.0, 21982.0, 21974.0, 21998.0, 22017.0, 22028.0, 22041.0, 22044.0, 22046.0, 22044.0, 22041.0, 22017.0, 22011.0, 22032.0, 22024.0, 22045.0, 22063.0, 22087.0, 22093.0, 22082.0, 22077.0, 22073.0, 22052.0, 22038.0, 22036.0, 22030.0, 22051.0, 22076.0, 22084.0, 22096.0, 22089.0, 22081.0, 22063.0, 22045.0, 22044.0, 22059.0, 22057.0, 22077.0, 22086.0, 22085.0, 22086.0, 22087.0, 22067.0, 22070.0, 22075.0, 22083.0, 22063.0, 22060.0, 22029.0, 22017.0, 21978.0, 21988.0, 21977.0, 21998.0, 21991.0, 21995.0]
    },
    "slices": {}
  }
}