{
  "AcquisitionMatrixPE": 104,
  "AcquisitionNumber": 1,
  "AcquisitionTime": "10:23:2.460000",
  "BandwidthPerPixelPhaseEncode": 16.578,
  "BaseResolution": 104,
  "BodyPartExamined": "BRAIN",
  "ConsistencyInfo": "N4_VE11C_LATEST_20160120",
  "ConversionSoftware": "dcm2niix",
  "ConversionSoftwareVersion": "v1.0.20190410  GCC6.3.0",
  "DerivedVendorReportedEchoSpacing": 0.000580009,
  "DeviceSerialNumber": "166018",
  "DwellTime": 2.1e-06,
  "EchoTime": 0.037,
  "EchoTrainLength": 104,
  "EffectiveEchoSpacing": 0.000580009,
  "FlipAngle": 68,
  "ImageComments": "Unaliased_MB6_PE3_LB",
  "ImageOrientationPatientDICOM": [0.995442, 0.0831316, 0.0467403, -0.0820152, 0.996309, -0.0253203],
  "ImageType": [
    "ORIGINAL",
    "PRIMARY",
    "M",
    "MB",
    "ND",
    "MOSAIC"
],
  "ImagingFrequency": 123.191,
  "InPlanePhaseEncodingDirectionDICOM": "COL",
  "InstitutionAddress": "Washington_Place_6_NYC_NYC_US_10003",
  "InstitutionName": "NYU_Center_for_Brain_Imaging",
  "InstitutionalDepartmentName": "Department",
  "MRAcquisitionType": "2D",
  "MagneticFieldStrength": 3,
  "Manufacturer": "Siemens",
  "ManufacturersModelName": "Prisma",
  "Modality": "MR",
  "MultibandAccelerationFactor": 6,
  "PartialFourier": 1,
  "PatientPosition": "HFS",
  "PercentPhaseFOV": 100,
  "PhaseEncodingDirection": "j",
  "PhaseEncodingSteps": 104,
  "PhaseResolution": 1,
  "PixelBandwidth": 2290,
  "ProcedureStepDescription": "Investigators_Winawer",
  "ProtocolName": "task-sfprescaled_cmrr_mbepi_s6_2mm_66sl_PA_TR1.0",
  "PulseSequenceDetails": "%CustomerSeq%_cmrr_mbep2d_bold",
  "ReceiveCoilActiveElements": "HC1-7",
  "ReceiveCoilName": "HeadNeck_64",
  "ReconMatrixPE": 104,
  "RepetitionTime": 1,
  "SAR": 0.0685127,
  "ScanOptions": "FS",
  "ScanningSequence": "EP",
  "SequenceName": "epfid2d1_104",
  "SequenceVariant": "SK_SS",
  "SeriesDescription": "task-sfprescaled_cmrr_mbepi_s6_2mm_66sl_PA_TR1.0",
  "SeriesNumber": 12,
  "ShimSetting": [277, -12593, -8545, 325, -6, -111, -35, 26],
  "SliceThickness": 2,
  "SliceTiming": [0, 0.535, 0.09, 0.6225, 0.1775, 0.7125, 0.2675, 0.8025, 0.355, 0.89, 0.445, 0, 0.535, 0.09, 0.6225, 0.1775, 0.7125, 0.2675, 0.8025, 0.355, 0.89, 0.445, 0, 0.535, 0.09, 0.6225, 0.1775, 0.7125, 0.2675, 0.8025, 0.355, 0.89, 0.445, 0, 0.535, 0.09, 0.6225, 0.1775, 0.7125, 0.2675, 0.8025, 0.355, 0.89, 0.445, 0, 0.535, 0.09, 0.6225, 0.1775, 0.7125, 0.2675, 0.8025, 0.355, 0.89, 0.445, 0, 0.535, 0.09, 0.6225, 0.1775, 0.7125, 0.2675, 0.8025, 0.355, 0.89, 0.445],
  "SoftwareVersions": "syngo_MR_E11",
  "SpacingBetweenSlices": 2,
  "StationName": "AWP166018",
  "TaskName": "sfprescaled",
  "TotalReadoutTime": 0.0597409,
  "TxRefAmp": 203.092,
  "WipMemBlock": "7de05b99-da33-4cf8-aed5-c1e525a8e42a||Sequence: R016 ve11c/master r/8780670; Nov 27 2017 15:05:12 by eja",
  "dcmmeta_affine": [
    [-1.990883708000183, -0.16403035819530487, 0.09734547138214111, 113.74717712402344],
    [-0.16626325249671936, 1.9926187992095947, -0.04274289309978485, -73.30086517333984],
    [0.09348063915967941, 0.05064055323600769, 1.997172236442566, -41.04076385498047],
    [0.0, 0.0, 0.0, 1.0]
],
  "dcmmeta_reorient_transform": [
    [0.0, -1.0, 0.0, 103.0],
    [1.0, 0.0, 0.0, 0.0],
    [0.0, 0.0, 1.0, 0.0],
    [0.0, 0.0, 0.0, 1.0]
],
  "dcmmeta_shape": [104, 104, 66, 264],
  "dcmmeta_slice_dim": 2,
  "dcmmeta_version": 0.6,
  "global": {
    "const": {
      "AccessionNumber": "jv3y3i0c",
  "NumberOfVolumes": 264,
      "AcquisitionMatrix": [104, 0, 0, 104],
      "AngioFlag": "N",
      "BitsAllocated": 16,
      "BitsStored": 16,
      "BodyPartExamined": "BRAIN",
      "Columns": 936,
      "EchoNumbers": 1,
      "EchoTime": 37.0,
      "EchoTrainLength": 104,
      "FlipAngle": 68.0,
      "HighBit": 15,
      "ImageOrientationPatient": [0.99544184899904, 0.08313162831178, 0.04674032130395, -0.0820151813389, 0.99630938650778, -0.0253202761922],
      "ImagePositionPatient": [-856.82303483909, -1030.0337956389, -53.646265343491],
      "ImageType": [
        "ORIGINAL",
        "PRIMARY",
        "M",
        "MB",
        "ND",
        "MOSAIC"
],
      "ImagedNucleus": "1H",
      "ImagingFrequency": 123.191083,
      "InPlanePhaseEncodingDirection": "COL",
      "MRAcquisitionType": "2D",
      "MagneticFieldStrength": 3.0,
      "Manufacturer": "SIEMENS",
      "ManufacturerModelName": "Prisma",
      "Modality": "MR",
      "NumberOfAverages": 1.0,
      "NumberOfPhaseEncodingSteps": 104,
      "PercentPhaseFieldOfView": 100.0,
      "PercentSampling": 100.0,
      "PerformedProcedureStepStartTime": "100021.887000",
      "PhotometricInterpretation": "MONOCHROME2",
      "PixelBandwidth": 2290.0,
      "PixelRepresentation": 0,
      "PixelSpacing": [2.0, 2.0],
      "ProtocolName": "task-sfprescaled_cmrr_mbepi_s6_2mm_66sl_PA_TR1.0",
      "RepetitionTime": 1000.0,
      "Rows": 936,
      "SAR": 0.06851266208846,
      "SamplesPerPixel": 1,
      "ScanOptions": "FS",
      "ScanningSequence": "EP",
      "SequenceName": "epfid2d1_104",
      "SequenceVariant": [
        "SK",
        "SS"
],
      "SeriesDescription": "task-sfprescaled_cmrr_mbepi_s6_2mm_66sl_PA_TR1.0",
      "SeriesNumber": 12,
      "SeriesTime": "102402.713000",
      "SliceLocation": -33.879805977721,
      "SliceThickness": 2.0,
      "SmallestImagePixelValue": 0,
      "SoftwareVersions": "syngo MR E11",
      "SpacingBetweenSlices": 2.0000000256817,
      "SpecificCharacterSet": "ISO_IR 100",
      "StudyID": "1",
      "StudyTime": "100021.836000",
      "TransmitCoilName": "Body",
      "VariableFlipAngleFlag": "N",
      "WindowCenterWidthExplanation": "Algo1",
      "dBdt": 0.0},
    "slices": {}
  },
  "time": {
    "samples": {
      "AcquisitionNumber": [1, 2, 3, 4, 5, 6, 7, 8, 9, 10, 11, 12, 13, 14, 15, 16, 17, 18, 19, 20, 21, 22, 23, 24, 25, 26, 27, 28, 29, 30, 31, 32, 33, 34, 35, 36, 37, 38, 39, 40, 41, 42, 43, 44, 45, 46, 47, 48, 49, 50, 51, 52, 53, 54, 55, 56, 57, 58, 59, 60, 61, 62, 63, 64, 65, 66, 67, 68, 69, 70, 71, 72, 73, 74, 75, 76, 77, 78, 79, 80, 81, 82, 83, 84, 85, 86, 87, 88, 89, 90, 91, 92, 93, 94, 95, 96, 97, 98, 99, 100, 101, 102, 103, 104, 105, 106, 107, 108, 109, 110, 111, 112, 113, 114, 115, 116, 117, 118, 119, 120, 121, 122, 123, 124, 125, 126, 127, 128, 129, 130, 131, 132, 133, 134, 135, 136, 137, 138, 139, 140, 141, 142, 143, 144, 145, 146, 147, 148, 149, 150, 151, 152, 153, 154, 155, 156, 157, 158, 159, 160, 161, 162, 163, 164, 165, 166, 167, 168, 169, 170, 171, 172, 173, 174, 175, 176, 177, 178, 179, 180, 181, 182, 183, 184, 185, 186, 187, 188, 189, 190, 191, 192, 193, 194, 195, 196, 197, 198, 199, 200, 201, 202, 203, 204, 205, 206, 207, 208, 209, 210, 211, 212, 213, 214, 215, 216, 217, 218, 219, 220, 221, 222, 223, 224, 225, 226, 227, 228, 229, 230, 231, 232, 233, 234, 235, 236, 237, 238, 239, 240, 241, 242, 243, 244, 245, 246, 247, 248, 249, 250, 251, 252, 253, 254, 255, 256, 257, 258, 259, 260, 261, 262, 263, 264],
      "AcquisitionTime": ["102302.460000", "102303.460000", "102304.460000", "102305.460000", "102306.460000", "102307.460000", "102308.460000", "102309.460000", "102310.460000", "102311.460000", "102312.460000", "102313.460000", "102314.460000", "102315.460000", "102316.460000", "102317.460000", "102318.460000", "102319.460000", "102320.460000", "102321.460000", "102322.460000", "102323.460000", "102324.460000", "102325.460000", "102326.460000", "102327.460000", "102328.460000", "102329.460000", "102330.460000", "102331.460000", "102332.460000", "102333.460000", "102334.460000", "102335.460000", "102336.460000", "102337.460000", "102338.460000", "102339.460000", "102340.460000", "102341.460000", "102342.460000", "102343.460000", "102344.460000", "102345.460000", "102346.460000", "102347.460000", "102348.460000", "102349.460000", "102350.460000", "102351.460000", "102352.460000", "102353.460000", "102354.460000", "102355.460000", "102356.460000", "102357.460000", "102358.460000", "102359.460000", "102400.460000", "102401.460000", "102402.460000", "102403.460000", "102404.460000", "102405.460000", "102406.460000", "102407.460000", "102408.460000", "102409.460000", "102410.460000", "102411.460000", "102412.460000", "102413.460000", "102414.460000", "102415.460000", "102416.460000", "102417.460000", "102418.460000", "102419.460000", "102420.460000", "102421.460000", "102422.460000", "102423.460000", "102424.460000", "102425.460000", "102426.460000", "102427.460000", "102428.460000", "102429.460000", "102430.460000", "102431.460000", "102432.460000", "102433.460000", "102434.460000", "102435.460000", "102436.460000", "102437.460000", "102438.460000", "102439.460000", "102440.460000", "102441.460000", "102442.460000", "102443.460000", "102444.460000", "102445.460000", "102446.460000", "102447.460000", "102448.460000", "102449.460000", "102450.460000", "102451.460000", "102452.460000", "102453.460000", "102454.460000", "102455.460000", "102456.460000", "102457.460000", "102458.460000", "102459.460000", "102500.460000", "102501.460000", "102502.460000", "102503.460000", "102504.460000", "102505.460000", "102506.460000", "102507.460000", "102508.460000", "102509.460000", "102510.460000", "102511.460000", "102512.460000", "102513.460000", "102514.460000", "102515.460000", "102516.460000", "102517.460000", "102518.460000", "102519.460000", "102520.460000", "102521.460000", "102522.460000", "102523.460000", "102524.460000", "102525.460000", "102526.460000", "102527.460000", "102528.460000", "102529.460000", "102530.460000", "102531.460000", "102532.460000", "102533.460000", "102534.460000", "102535.460000", "102536.460000", "102537.460000", "102538.460000", "102539.460000", "102540.460000", "102541.460000", "102542.460000", "102543.460000", "102544.460000", "102545.460000", "102546.460000", "102547.460000", "102548.460000", "102549.460000", "102550.460000", "102551.460000", "102552.460000", "102553.460000", "102554.460000", "102555.460000", "102556.460000", "102557.460000", "102558.460000", "102559.460000", "102600.460000", "102601.460000", "102602.460000", "102603.460000", "102604.460000", "102605.460000", "102606.460000", "102607.460000", "102608.460000", "102609.460000", "102610.460000", "102611.460000", "102612.460000", "102613.460000", "102614.460000", "102615.460000", "102616.460000", "102617.460000", "102618.460000", "102619.460000", "102620.460000", "102621.460000", "102622.460000", "102623.460000", "102624.460000", "102625.460000", "102626.460000", "102627.460000", "102628.460000", "102629.460000", "102630.460000", "102631.460000", "102632.460000", "102633.460000", "102634.460000", "102635.460000", "102636.460000", "102637.460000", "102638.460000", "102639.460000", "102640.460000", "102641.460000", "102642.460000", "102643.460000", "102644.460000", "102645.460000", "102646.460000", "102647.460000", "102648.460000", "102649.460000", "102650.460000", "102651.460000", "102652.460000", "102653.460000", "102654.460000", "102655.460000", "102656.460000", "102657.460000", "102658.460000", "102659.460000", "102700.460000", "102701.460000", "102702.460000", "102703.460000", "102704.460000", "102705.460000", "102706.460000", "102707.460000", "102708.460000", "102709.460000", "102710.460000", "102711.460000", "102712.460000", "102713.460000", "102714.460000", "102715.460000", "102716.460000", "102717.460000", "102718.460000", "102719.460000", "102720.460000", "102721.460000", "102722.460000", "102723.460000", "102724.460000", "102725.460000"],
      "ContentTime": ["102402.716000", "102402.720000", "102402.722000", "102402.725000", "102402.728000", "102402.731000", "102407.673000", "102407.676000", "102407.679000", "102407.682000", "102407.696000", "102407.699000", "102407.701000", "102412.674000", "102412.677000", "102412.680000", "102412.682000", "102412.685000", "102412.688000", "102412.691000", "102417.674000", "102417.677000", "102417.680000", "102417.683000", "102417.686000", "102417.689000", "102417.699000", "102422.673000", "102422.676000", "102422.679000", "102422.681000", "102422.684000", "102422.687000", "102422.690000", "102422.693000", "102427.673000", "102427.676000", "102427.679000", "102427.682000", "102427.685000", "102427.687000", "102427.690000", "102432.674000", "102432.677000", "102432.680000", "102432.683000", "102432.685000", "102432.688000", "102432.692000", "102437.673000", "102437.676000", "102437.679000", "102437.681000", "102437.684000", "102437.687000", "102437.690000", "102442.673000", "102442.676000", "102442.679000", "102442.681000", "102442.684000", "102442.687000", "102442.690000", "102447.674000", "102447.677000", "102447.680000", "102447.683000", "102447.686000", "102447.688000", "102447.691000", "102452.674000", "102452.677000", "102452.680000", "102452.683000", "102452.686000", "102452.688000", "102452.691000", "102457.673000", "102457.676000", "102457.679000", "102457.682000", "102457.684000", "102457.687000", "102457.690000", "102502.673000", "102502.676000", "102502.679000", "102502.682000", "102502.684000", "102502.687000", "102502.690000", "102507.674000", "102507.677000", "102507.680000", "102507.683000", "102507.686000", "102507.688000", "102507.691000", "102512.673000", "102512.676000", "102512.679000", "102512.682000", "102512.685000", "102512.687000", "102512.690000", "102517.673000", "102517.676000", "102517.679000", "102517.682000", "102517.684000", "102517.687000", "102517.690000", "102522.674000", "102522.677000", "102522.680000", "102522.693000", "102522.696000", "102522.699000", "102522.702000", "102522.705000", "102527.674000", "102527.677000", "102527.679000", "102527.682000", "102527.685000", "102527.688000", "102527.691000", "102532.673000", "102532.676000", "102532.679000", "102532.682000", "102532.684000", "102532.687000", "102532.690000", "102537.673000", "102537.676000", "102537.679000", "102537.682000", "102537.685000", "102537.687000", "102537.690000", "102542.674000", "102542.677000", "102542.680000", "102542.683000", "102542.686000", "102542.688000", "102542.691000", "102547.673000", "102547.676000", "102547.679000", "102547.682000", "102547.684000", "102547.687000", "102547.690000", "102552.673000", "102552.676000", "102552.679000", "102552.682000", "102552.684000", "102552.687000", "102552.690000", "102557.674000", "102557.677000", "102557.680000", "102557.683000", "102557.685000", "102557.688000", "102557.691000", "102602.674000", "102602.677000", "102602.680000", "102602.683000", "102602.686000", "102602.688000", "102602.691000", "102607.673000", "102607.676000", "102607.679000", "102607.682000", "102607.685000", "102607.687000", "102607.690000", "102612.673000", "102612.676000", "102612.679000", "102612.682000", "102612.685000", "102612.687000", "102617.674000", "102617.677000", "102617.680000", "102617.683000", "102617.686000", "102622.673000", "102622.676000", "102622.679000", "102622.705000", "102622.707000", "102627.673000", "102627.676000", "102627.679000", "102627.682000", "102627.684000", "102632.674000", "102632.677000", "102632.680000", "102632.683000", "102632.685000", "102637.674000", "102637.677000", "102637.680000", "102637.683000", "102637.685000", "102642.673000", "102642.676000", "102642.679000", "102642.681000", "102642.684000", "102647.673000", "102647.676000", "102647.679000", "102647.682000", "102647.685000", "102652.674000", "102652.677000", "102652.680000", "102652.683000", "102652.685000", "102657.673000", "102657.676000", "102657.679000", "102657.682000", "102657.685000", "102702.673000", "102702.676000", "102702.679000", "102702.682000", "102702.685000", "102707.674000", "102707.677000", "102707.680000", "102707.683000", "102707.686000", "102712.674000", "102712.677000", "102712.680000", "102712.683000", "102712.686000", "102717.673000", "102717.676000", "102717.679000", "102717.682000", "102717.685000", "102722.673000", "102722.676000", "102722.679000", "102722.682000", "102722.684000", "102727.054000", "102727.057000", "102727.061000", "102727.064000", "102727.067000"],
      "InstanceCreationTime": ["102402.716000", "102402.720000", "102402.722000", "102402.725000", "102402.728000", "102402.731000", "102407.673000", "102407.676000", "102407.679000", "102407.682000", "102407.696000", "102407.699000", "102407.701000", "102412.674000", "102412.677000", "102412.680000", "102412.682000", "102412.685000", "102412.688000", "102412.691000", "102417.674000", "102417.677000", "102417.680000", "102417.683000", "102417.686000", "102417.689000", "102417.699000", "102422.673000", "102422.676000", "102422.679000", "102422.681000", "102422.684000", "102422.687000", "102422.690000", "102422.693000", "102427.673000", "102427.676000", "102427.679000", "102427.682000", "102427.685000", "102427.687000", "102427.690000", "102432.674000", "102432.677000", "102432.680000", "102432.683000", "102432.685000", "102432.688000", "102432.692000", "102437.673000", "102437.676000", "102437.679000", "102437.681000", "102437.684000", "102437.687000", "102437.690000", "102442.673000", "102442.676000", "102442.679000", "102442.681000", "102442.684000", "102442.687000", "102442.690000", "102447.674000", "102447.677000", "102447.680000", "102447.683000", "102447.686000", "102447.688000", "102447.691000", "102452.674000", "102452.677000", "102452.680000", "102452.683000", "102452.686000", "102452.688000", "102452.691000", "102457.673000", "102457.676000", "102457.679000", "102457.682000", "102457.684000", "102457.687000", "102457.690000", "102502.673000", "102502.676000", "102502.679000", "102502.682000", "102502.684000", "102502.687000", "102502.690000", "102507.674000", "102507.677000", "102507.680000", "102507.683000", "102507.686000", "102507.688000", "102507.691000", "102512.673000", "102512.676000", "102512.679000", "102512.682000", "102512.685000", "102512.687000", "102512.690000", "102517.673000", "102517.676000", "102517.679000", "102517.682000", "102517.684000", "102517.687000", "102517.690000", "102522.674000", "102522.677000", "102522.680000", "102522.693000", "102522.696000", "102522.699000", "102522.702000", "102522.705000", "102527.674000", "102527.677000", "102527.679000", "102527.682000", "102527.685000", "102527.688000", "102527.691000", "102532.673000", "102532.676000", "102532.679000", "102532.682000", "102532.684000", "102532.687000", "102532.690000", "102537.673000", "102537.676000", "102537.679000", "102537.682000", "102537.685000", "102537.687000", "102537.690000", "102542.674000", "102542.677000", "102542.680000", "102542.683000", "102542.686000", "102542.688000", "102542.691000", "102547.673000", "102547.676000", "102547.679000", "102547.682000", "102547.684000", "102547.687000", "102547.690000", "102552.673000", "102552.676000", "102552.679000", "102552.682000", "102552.684000", "102552.687000", "102552.690000", "102557.674000", "102557.677000", "102557.680000", "102557.683000", "102557.685000", "102557.688000", "102557.691000", "102602.674000", "102602.677000", "102602.680000", "102602.683000", "102602.686000", "102602.688000", "102602.691000", "102607.673000", "102607.676000", "102607.679000", "102607.682000", "102607.685000", "102607.687000", "102607.690000", "102612.673000", "102612.676000", "102612.679000", "102612.682000", "102612.685000", "102612.687000", "102617.674000", "102617.677000", "102617.680000", "102617.683000", "102617.686000", "102622.673000", "102622.676000", "102622.679000", "102622.705000", "102622.707000", "102627.673000", "102627.676000", "102627.679000", "102627.682000", "102627.684000", "102632.674000", "102632.677000", "102632.680000", "102632.683000", "102632.685000", "102637.674000", "102637.677000", "102637.680000", "102637.683000", "102637.685000", "102642.673000", "102642.676000", "102642.679000", "102642.681000", "102642.684000", "102647.673000", "102647.676000", "102647.679000", "102647.682000", "102647.685000", "102652.674000", "102652.677000", "102652.680000", "102652.683000", "102652.685000", "102657.673000", "102657.676000", "102657.679000", "102657.682000", "102657.685000", "102702.673000", "102702.676000", "102702.679000", "102702.682000", "102702.685000", "102707.674000", "102707.677000", "102707.680000", "102707.683000", "102707.686000", "102712.674000", "102712.677000", "102712.680000", "102712.683000", "102712.686000", "102717.673000", "102717.676000", "102717.679000", "102717.682000", "102717.685000", "102722.673000", "102722.676000", "102722.679000", "102722.682000", "102722.684000", "102727.054000", "102727.057000", "102727.061000", "102727.064000", "102727.067000"],
      "InstanceNumber": [1, 2, 3, 4, 5, 6, 7, 8, 9, 10, 11, 12, 13, 14, 15, 16, 17, 18, 19, 20, 21, 22, 23, 24, 25, 26, 27, 28, 29, 30, 31, 32, 33, 34, 35, 36, 37, 38, 39, 40, 41, 42, 43, 44, 45, 46, 47, 48, 49, 50, 51, 52, 53, 54, 55, 56, 57, 58, 59, 60, 61, 62, 63, 64, 65, 66, 67, 68, 69, 70, 71, 72, 73, 74, 75, 76, 77, 78, 79, 80, 81, 82, 83, 84, 85, 86, 87, 88, 89, 90, 91, 92, 93, 94, 95, 96, 97, 98, 99, 100, 101, 102, 103, 104, 105, 106, 107, 108, 109, 110, 111, 112, 113, 114, 115, 116, 117, 118, 119, 120, 121, 122, 123, 124, 125, 126, 127, 128, 129, 130, 131, 132, 133, 134, 135, 136, 137, 138, 139, 140, 141, 142, 143, 144, 145, 146, 147, 148, 149, 150, 151, 152, 153, 154, 155, 156, 157, 158, 159, 160, 161, 162, 163, 164, 165, 166, 167, 168, 169, 170, 171, 172, 173, 174, 175, 176, 177, 178, 179, 180, 181, 182, 183, 184, 185, 186, 187, 188, 189, 190, 191, 192, 193, 194, 195, 196, 197, 198, 199, 200, 201, 202, 203, 204, 205, 206, 207, 208, 209, 210, 211, 212, 213, 214, 215, 216, 217, 218, 219, 220, 221, 222, 223, 224, 225, 226, 227, 228, 229, 230, 231, 232, 233, 234, 235, 236, 237, 238, 239, 240, 241, 242, 243, 244, 245, 246, 247, 248, 249, 250, 251, 252, 253, 254, 255, 256, 257, 258, 259, 260, 261, 262, 263, 264],
      "LargestImagePixelValue": [41825, 40620, 39661, 39488, 39272, 39199, 39276, 38935, 39016, 38914, 39052, 39002, 39217, 38674, 38809, 38462, 38986, 38905, 38331, 38463, 38809, 38312, 38684, 39144, 38051, 38865, 38622, 38402, 38648, 38850, 38693, 38679, 38582, 39290, 38322, 38889, 38806, 38211, 38836, 38903, 38410, 38562, 38947, 38437, 38352, 38381, 38944, 38681, 38960, 39163, 38259, 38976, 39112, 39659, 39000, 38680, 38478, 38424, 38979, 38742, 38851, 38582, 38664, 38224, 38334, 38939, 39577, 38737, 38753, 38893, 38593, 37962, 38307, 37673, 38451, 37886, 38360, 38321, 37915, 38218, 37775, 38447, 38235, 38843, 38124, 38305, 38156, 37745, 38082, 38192, 38566, 37649, 38379, 38480, 38251, 38229, 38577, 37939, 37539, 38330, 37566, 37947, 37805, 38312, 38298, 38128, 38289, 37459, 37934, 37817, 37420, 37948, 37580, 38619, 37409, 37751, 37657, 38141, 37926, 37948, 37915, 37770, 37830, 37639, 38192, 37750, 37540, 37866, 37718, 37895, 37556, 37933, 37739, 38117, 37742, 37662, 37587, 38291, 37610, 37698, 37692, 37943, 37694, 37577, 37561, 37357, 37500, 37866, 37334, 37736, 37261, 37354, 38083, 37596, 37887, 37555, 37765, 37944, 37268, 37982, 37419, 37478, 37805, 37842, 38535, 37970, 37491, 37746, 37416, 37807, 38121, 37388, 37727, 38256, 37428, 37618, 37479, 37335, 37384, 37668, 37915, 37831, 38108, 37644, 37476, 37718, 37628, 37566, 37853, 37400, 38055, 37406, 37774, 37709, 37823, 37678, 37594, 37301, 37469, 37479, 37647, 37526, 37870, 37979, 37654, 37812, 37470, 37647, 38153, 37437, 37719, 37856, 37230, 38157, 37439, 37675, 37579, 37838, 37467, 37666, 38214, 37297, 37661, 37444, 37846, 37373, 37696, 37487, 37932, 37735, 37488, 37697, 37333, 37419, 38206, 37309, 37543, 37565, 37373, 38231, 37927, 37718, 37788, 37814, 37721, 37564, 37362, 37593, 37374, 37773, 37380, 37577, 37496, 37754, 37777, 37672, 37511, 37564, 37703, 37479, 37672, 37681, 37321, 38117],
      "WindowCenter": [10346.0, 10294.0, 10252.0, 10239.0, 10236.0, 10228.0, 10234.0, 10233.0, 10231.0, 10230.0, 10225.0, 10215.0, 10212.0, 10201.0, 10198.0, 10193.0, 10199.0, 10205.0, 10202.0, 10202.0, 10207.0, 10202.0, 10206.0, 10212.0, 10197.0, 10207.0, 10214.0, 10214.0, 10220.0, 10228.0, 10228.0, 10229.0, 10229.0, 10226.0, 10211.0, 10220.0, 10220.0, 10224.0, 10236.0, 10242.0, 10234.0, 10245.0, 10244.0, 10235.0, 10239.0, 10235.0, 10241.0, 10236.0, 10236.0, 10234.0, 10235.0, 10241.0, 10249.0, 10267.0, 10273.0, 10262.0, 10256.0, 10244.0, 10237.0, 10237.0, 10238.0, 10239.0, 10243.0, 10241.0, 10242.0, 10244.0, 10252.0, 10250.0, 10249.0, 10254.0, 10242.0, 10231.0, 10228.0, 10215.0, 10218.0, 10214.0, 10217.0, 10217.0, 10213.0, 10219.0, 10215.0, 10232.0, 10234.0, 10237.0, 10226.0, 10226.0, 10213.0, 10208.0, 10213.0, 10214.0, 10223.0, 10215.0, 10224.0, 10217.0, 10210.0, 10212.0, 10215.0, 10211.0, 10209.0, 10224.0, 10216.0, 10220.0, 10216.0, 10217.0, 10212.0, 10211.0, 10202.0, 10198.0, 10209.0, 10211.0, 10212.0, 10212.0, 10207.0, 10220.0, 10223.0, 10237.0, 10240.0, 10244.0, 10250.0, 10240.0, 10231.0, 10225.0, 10226.0, 10222.0, 10219.0, 10216.0, 10209.0, 10214.0, 10222.0, 10223.0, 10217.0, 10223.0, 10217.0, 10213.0, 10206.0, 10207.0, 10201.0, 10216.0, 10214.0, 10220.0, 10220.0, 10221.0, 10223.0, 10208.0, 10208.0, 10202.0, 10201.0, 10203.0, 10205.0, 10211.0, 10206.0, 10211.0, 10222.0, 10214.0, 10212.0, 10215.0, 10221.0, 10226.0, 10223.0, 10227.0, 10221.0, 10207.0, 10212.0, 10218.0, 10222.0, 10226.0, 10224.0, 10233.0, 10226.0, 10229.0, 10233.0, 10231.0, 10236.0, 10239.0, 10241.0, 10235.0, 10225.0, 10211.0, 10203.0, 10194.0, 10190.0, 10181.0, 10192.0, 10195.0, 10198.0, 10197.0, 10204.0, 10206.0, 10205.0, 10206.0, 10213.0, 10207.0, 10205.0, 10210.0, 10213.0, 10215.0, 10215.0, 10211.0, 10202.0, 10194.0, 10197.0, 10198.0, 10192.0, 10196.0, 10203.0, 10204.0, 10204.0, 10212.0, 10212.0, 10207.0, 10212.0, 10201.0, 10194.0, 10210.0, 10212.0, 10212.0, 10220.0, 10222.0, 10215.0, 10214.0, 10210.0, 10198.0, 10202.0, 10198.0, 10204.0, 10214.0, 10222.0, 10217.0, 10220.0, 10212.0, 10195.0, 10197.0, 10199.0, 10206.0, 10208.0, 10201.0, 10199.0, 10190.0, 10189.0, 10200.0, 10205.0, 10210.0, 10212.0, 10211.0, 10218.0, 10213.0, 10212.0, 10205.0, 10211.0, 10212.0, 10219.0, 10229.0, 10229.0, 10233.0, 10222.0, 10213.0, 10210.0, 10207.0, 10203.0, 10204.0, 10212.0, 10215.0, 10211.0, 10212.0],
      "WindowWidth": [22470.0, 22309.0, 22188.0, 22142.0, 22125.0, 22102.0, 22117.0, 22116.0, 22109.0, 22105.0, 22093.0, 22069.0, 22060.0, 22036.0, 22026.0, 22018.0, 22028.0, 22043.0, 22040.0, 22040.0, 22049.0, 22039.0, 22044.0, 22057.0, 22031.0, 22048.0, 22064.0, 22067.0, 22079.0, 22095.0, 22099.0, 22102.0, 22103.0, 22094.0, 22063.0, 22078.0, 22081.0, 22093.0, 22120.0, 22133.0, 22119.0, 22144.0, 22141.0, 22121.0, 22129.0, 22119.0, 22130.0, 22120.0, 22119.0, 22112.0, 22115.0, 22128.0, 22149.0, 22189.0, 22206.0, 22183.0, 22171.0, 22140.0, 22119.0, 22119.0, 22121.0, 22126.0, 22133.0, 22134.0, 22133.0, 22136.0, 22151.0, 22150.0, 22148.0, 22156.0, 22132.0, 22110.0, 22102.0, 22072.0, 22077.0, 22070.0, 22074.0, 22075.0, 22068.0, 22078.0, 22075.0, 22110.0, 22115.0, 22120.0, 22097.0, 22095.0, 22066.0, 22056.0, 22065.0, 22067.0, 22085.0, 22073.0, 22088.0, 22075.0, 22059.0, 22061.0, 22067.0, 22059.0, 22059.0, 22089.0, 22079.0, 22084.0, 22075.0, 22074.0, 22062.0, 22056.0, 22035.0, 22030.0, 22054.0, 22060.0, 22065.0, 22062.0, 22051.0, 22077.0, 22093.0, 22124.0, 22131.0, 22141.0, 22152.0, 22130.0, 22111.0, 22097.0, 22094.0, 22084.0, 22078.0, 22070.0, 22057.0, 22068.0, 22085.0, 22088.0, 22077.0, 22089.0, 22076.0, 22063.0, 22049.0, 22048.0, 22037.0, 22068.0, 22069.0, 22080.0, 22083.0, 22086.0, 22089.0, 22057.0, 22056.0, 22041.0, 22038.0, 22041.0, 22047.0, 22060.0, 22049.0, 22062.0, 22084.0, 22070.0, 22063.0, 22071.0, 22083.0, 22094.0, 22090.0, 22097.0, 22084.0, 22054.0, 22061.0, 22073.0, 22081.0, 22094.0, 22094.0, 22114.0, 22101.0, 22105.0, 22112.0, 22109.0, 22121.0, 22127.0, 22133.0, 22121.0, 22092.0, 22063.0, 22041.0, 22019.0, 22005.0, 21984.0, 22009.0, 22018.0, 22029.0, 22026.0, 22041.0, 22047.0, 22043.0, 22048.0, 22061.0, 22048.0, 22045.0, 22054.0, 22065.0, 22069.0, 22071.0, 22063.0, 22038.0, 22022.0, 22023.0, 22028.0, 22016.0, 22023.0, 22038.0, 22040.0, 22043.0, 22061.0, 22059.0, 22051.0, 22061.0, 22034.0, 22022.0, 22054.0, 22057.0, 22060.0, 22082.0, 22085.0, 22071.0, 22067.0, 22054.0, 22028.0, 22036.0, 22026.0, 22043.0, 22066.0, 22085.0, 22076.0, 22079.0, 22058.0, 22020.0, 22022.0, 22029.0, 22047.0, 22050.0, 22036.0, 22029.0, 22007.0, 22004.0, 22026.0, 22038.0, 22051.0, 22056.0, 22056.0, 22072.0, 22064.0, 22060.0, 22045.0, 22058.0, 22060.0, 22078.0, 22103.0, 22103.0, 22110.0, 22085.0, 22064.0, 22055.0, 22049.0, 22040.0, 22043.0, 22060.0, 22066.0, 22059.0, 22060.0]
    },
    "slices": {}
  }
}