{
  "AcquisitionMatrixPE": 104,
  "AcquisitionNumber": 1,
  "AcquisitionTime": "10:52:8.525000",
  "BandwidthPerPixelPhaseEncode": 16.578,
  "BaseResolution": 104,
  "BodyPartExamined": "BRAIN",
  "ConsistencyInfo": "N4_VE11C_LATEST_20160120",
  "ConversionSoftware": "dcm2niix",
  "ConversionSoftwareVersion": "v1.0.20190410  GCC6.3.0",
  "DerivedVendorReportedEchoSpacing": 0.000580009,
  "DeviceSerialNumber": "166018",
  "DwellTime": 2.1e-06,
  "EchoTime": 0.037,
  "EchoTrainLength": 104,
  "EffectiveEchoSpacing": 0.000580009,
  "FlipAngle": 68,
  "ImageComments": "Unaliased_MB6_PE3_LB",
  "ImageOrientationPatientDICOM": [0.995442, 0.0831316, 0.0467403, -0.0820152, 0.996309, -0.0253203],
  "ImageType": [
    "ORIGINAL",
    "PRIMARY",
    "M",
    "MB",
    "ND",
    "MOSAIC"
],
  "ImagingFrequency": 123.191,
  "InPlanePhaseEncodingDirectionDICOM": "COL",
  "InstitutionAddress": "Washington_Place_6_NYC_NYC_US_10003",
  "InstitutionName": "NYU_Center_for_Brain_Imaging",
  "InstitutionalDepartmentName": "Department",
  "MRAcquisitionType": "2D",
  "MagneticFieldStrength": 3,
  "Manufacturer": "Siemens",
  "ManufacturersModelName": "Prisma",
  "Modality": "MR",
  "MultibandAccelerationFactor": 6,
  "PartialFourier": 1,
  "PatientPosition": "HFS",
  "PercentPhaseFOV": 100,
  "PhaseEncodingDirection": "j",
  "PhaseEncodingSteps": 104,
  "PhaseResolution": 1,
  "PixelBandwidth": 2290,
  "ProcedureStepDescription": "Investigators_Winawer",
  "ProtocolName": "task-sfprescaled_cmrr_mbepi_s6_2mm_66sl_PA_TR1.0",
  "PulseSequenceDetails": "%CustomerSeq%_cmrr_mbep2d_bold",
  "ReceiveCoilActiveElements": "HC1-7",
  "ReceiveCoilName": "HeadNeck_64",
  "ReconMatrixPE": 104,
  "RepetitionTime": 1,
  "SAR": 0.0685127,
  "ScanOptions": "FS",
  "ScanningSequence": "EP",
  "SequenceName": "epfid2d1_104",
  "SequenceVariant": "SK_SS",
  "SeriesDescription": "task-sfprescaled_cmrr_mbepi_s6_2mm_66sl_PA_TR1.0",
  "SeriesNumber": 24,
  "ShimSetting": [277, -12593, -8545, 325, -6, -111, -35, 26],
  "SliceThickness": 2,
  "SliceTiming": [0, 0.5325, 0.0875, 0.6225, 0.1775, 0.7125, 0.2675, 0.8, 0.355, 0.89, 0.445, 0, 0.5325, 0.0875, 0.6225, 0.1775, 0.7125, 0.2675, 0.8, 0.355, 0.89, 0.445, 0, 0.5325, 0.0875, 0.6225, 0.1775, 0.7125, 0.2675, 0.8, 0.355, 0.89, 0.445, 0, 0.5325, 0.0875, 0.6225, 0.1775, 0.7125, 0.2675, 0.8, 0.355, 0.89, 0.445, 0, 0.5325, 0.0875, 0.6225, 0.1775, 0.7125, 0.2675, 0.8, 0.355, 0.89, 0.445, 0, 0.5325, 0.0875, 0.6225, 0.1775, 0.7125, 0.2675, 0.8, 0.355, 0.89, 0.445],
  "SoftwareVersions": "syngo_MR_E11",
  "SpacingBetweenSlices": 2,
  "StationName": "AWP166018",
  "TaskName": "sfprescaled",
  "TotalReadoutTime": 0.0597409,
  "TxRefAmp": 203.092,
  "WipMemBlock": "7de05b99-da33-4cf8-aed5-c1e525a8e42a||Sequence: R016 ve11c/master r/8780670; Nov 27 2017 15:05:12 by eja",
  "dcmmeta_affine": [
    [-1.990883708000183, -0.16403035819530487, 0.09734547138214111, 113.74717712402344],
    [-0.16626325249671936, 1.9926187992095947, -0.04274289309978485, -73.30086517333984],
    [0.09348063915967941, 0.05064055323600769, 1.997172236442566, -41.04076385498047],
    [0.0, 0.0, 0.0, 1.0]
],
  "dcmmeta_reorient_transform": [
    [0.0, -1.0, 0.0, 103.0],
    [1.0, 0.0, 0.0, 0.0],
    [0.0, 0.0, 1.0, 0.0],
    [0.0, 0.0, 0.0, 1.0]
],
  "dcmmeta_shape": [104, 104, 66, 264],
  "dcmmeta_slice_dim": 2,
  "dcmmeta_version": 0.6,
  "global": {
    "const": {
      "AccessionNumber": "jv3y3i0c",
  "NumberOfVolumes": 264,
      "AcquisitionMatrix": [104, 0, 0, 104],
      "AngioFlag": "N",
      "BitsAllocated": 16,
      "BitsStored": 16,
      "BodyPartExamined": "BRAIN",
      "Columns": 936,
      "EchoNumbers": 1,
      "EchoTime": 37.0,
      "EchoTrainLength": 104,
      "FlipAngle": 68.0,
      "HighBit": 15,
      "ImageOrientationPatient": [0.99544184899904, 0.08313162831178, 0.04674032130395, -0.0820151813389, 0.99630938650778, -0.0253202761922],
      "ImagePositionPatient": [-856.82303483909, -1030.0337956389, -53.646265343491],
      "ImageType": [
        "ORIGINAL",
        "PRIMARY",
        "M",
        "MB",
        "ND",
        "MOSAIC"
],
      "ImagedNucleus": "1H",
      "ImagingFrequency": 123.191083,
      "InPlanePhaseEncodingDirection": "COL",
      "MRAcquisitionType": "2D",
      "MagneticFieldStrength": 3.0,
      "Manufacturer": "SIEMENS",
      "ManufacturerModelName": "Prisma",
      "Modality": "MR",
      "NumberOfAverages": 1.0,
      "NumberOfPhaseEncodingSteps": 104,
      "PercentPhaseFieldOfView": 100.0,
      "PercentSampling": 100.0,
      "PerformedProcedureStepStartTime": "100021.887000",
      "PhotometricInterpretation": "MONOCHROME2",
      "PixelBandwidth": 2290.0,
      "PixelRepresentation": 0,
      "PixelSpacing": [2.0, 2.0],
      "ProtocolName": "task-sfprescaled_cmrr_mbepi_s6_2mm_66sl_PA_TR1.0",
      "RepetitionTime": 1000.0,
      "Rows": 936,
      "SAR": 0.06851266208846,
      "SamplesPerPixel": 1,
      "ScanOptions": "FS",
      "ScanningSequence": "EP",
      "SequenceName": "epfid2d1_104",
      "SequenceVariant": [
        "SK",
        "SS"
],
      "SeriesDescription": "task-sfprescaled_cmrr_mbepi_s6_2mm_66sl_PA_TR1.0",
      "SeriesNumber": 24,
      "SeriesTime": "105309.282000",
      "SliceLocation": -33.879805977721,
      "SliceThickness": 2.0,
      "SmallestImagePixelValue": 0,
      "SoftwareVersions": "syngo MR E11",
      "SpacingBetweenSlices": 2.0000000256817,
      "SpecificCharacterSet": "ISO_IR 100",
      "StudyID": "1",
      "StudyTime": "100021.836000",
      "TransmitCoilName": "Body",
      "VariableFlipAngleFlag": "N",
      "WindowCenterWidthExplanation": "Algo1",
      "dBdt": 0.0},
    "slices": {}
  },
  "time": {
    "samples": {
      "AcquisitionNumber": [1, 2, 3, 4, 5, 6, 7, 8, 9, 10, 11, 12, 13, 14, 15, 16, 17, 18, 19, 20, 21, 22, 23, 24, 25, 26, 27, 28, 29, 30, 31, 32, 33, 34, 35, 36, 37, 38, 39, 40, 41, 42, 43, 44, 45, 46, 47, 48, 49, 50, 51, 52, 53, 54, 55, 56, 57, 58, 59, 60, 61, 62, 63, 64, 65, 66, 67, 68, 69, 70, 71, 72, 73, 74, 75, 76, 77, 78, 79, 80, 81, 82, 83, 84, 85, 86, 87, 88, 89, 90, 91, 92, 93, 94, 95, 96, 97, 98, 99, 100, 101, 102, 103, 104, 105, 106, 107, 108, 109, 110, 111, 112, 113, 114, 115, 116, 117, 118, 119, 120, 121, 122, 123, 124, 125, 126, 127, 128, 129, 130, 131, 132, 133, 134, 135, 136, 137, 138, 139, 140, 141, 142, 143, 144, 145, 146, 147, 148, 149, 150, 151, 152, 153, 154, 155, 156, 157, 158, 159, 160, 161, 162, 163, 164, 165, 166, 167, 168, 169, 170, 171, 172, 173, 174, 175, 176, 177, 178, 179, 180, 181, 182, 183, 184, 185, 186, 187, 188, 189, 190, 191, 192, 193, 194, 195, 196, 197, 198, 199, 200, 201, 202, 203, 204, 205, 206, 207, 208, 209, 210, 211, 212, 213, 214, 215, 216, 217, 218, 219, 220, 221, 222, 223, 224, 225, 226, 227, 228, 229, 230, 231, 232, 233, 234, 235, 236, 237, 238, 239, 240, 241, 242, 243, 244, 245, 246, 247, 248, 249, 250, 251, 252, 253, 254, 255, 256, 257, 258, 259, 260, 261, 262, 263, 264],
      "AcquisitionTime": ["105208.525000", "105209.525000", "105210.525000", "105211.525000", "105212.525000", "105213.525000", "105214.525000", "105215.525000", "105216.525000", "105217.525000", "105218.525000", "105219.525000", "105220.525000", "105221.525000", "105222.525000", "105223.525000", "105224.525000", "105225.525000", "105226.525000", "105227.525000", "105228.525000", "105229.525000", "105230.525000", "105231.525000", "105232.525000", "105233.525000", "105234.525000", "105235.525000", "105236.525000", "105237.525000", "105238.525000", "105239.525000", "105240.525000", "105241.525000", "105242.525000", "105243.525000", "105244.525000", "105245.525000", "105246.525000", "105247.525000", "105248.525000", "105249.525000", "105250.525000", "105251.525000", "105252.525000", "105253.525000", "105254.525000", "105255.525000", "105256.525000", "105257.525000", "105258.525000", "105259.525000", "105300.525000", "105301.525000", "105302.525000", "105303.525000", "105304.525000", "105305.525000", "105306.525000", "105307.525000", "105308.525000", "105309.525000", "105310.525000", "105311.525000", "105312.525000", "105313.525000", "105314.525000", "105315.525000", "105316.525000", "105317.525000", "105318.525000", "105319.525000", "105320.525000", "105321.525000", "105322.525000", "105323.525000", "105324.525000", "105325.525000", "105326.525000", "105327.525000", "105328.525000", "105329.525000", "105330.525000", "105331.525000", "105332.525000", "105333.525000", "105334.525000", "105335.525000", "105336.525000", "105337.525000", "105338.525000", "105339.525000", "105340.525000", "105341.525000", "105342.525000", "105343.525000", "105344.525000", "105345.525000", "105346.525000", "105347.525000", "105348.525000", "105349.525000", "105350.525000", "105351.525000", "105352.525000", "105353.525000", "105354.525000", "105355.525000", "105356.525000", "105357.525000", "105358.525000", "105359.525000", "105400.525000", "105401.525000", "105402.525000", "105403.525000", "105404.525000", "105405.525000", "105406.525000", "105407.525000", "105408.525000", "105409.525000", "105410.525000", "105411.525000", "105412.525000", "105413.525000", "105414.525000", "105415.525000", "105416.525000", "105417.525000", "105418.525000", "105419.525000", "105420.525000", "105421.525000", "105422.525000", "105423.525000", "105424.525000", "105425.525000", "105426.525000", "105427.525000", "105428.525000", "105429.525000", "105430.525000", "105431.525000", "105432.525000", "105433.525000", "105434.525000", "105435.525000", "105436.525000", "105437.525000", "105438.525000", "105439.525000", "105440.525000", "105441.525000", "105442.525000", "105443.525000", "105444.525000", "105445.525000", "105446.525000", "105447.525000", "105448.525000", "105449.525000", "105450.525000", "105451.525000", "105452.525000", "105453.525000", "105454.525000", "105455.525000", "105456.525000", "105457.525000", "105458.525000", "105459.525000", "105500.525000", "105501.525000", "105502.525000", "105503.525000", "105504.525000", "105505.525000", "105506.525000", "105507.525000", "105508.525000", "105509.525000", "105510.525000", "105511.525000", "105512.525000", "105513.525000", "105514.525000", "105515.525000", "105516.525000", "105517.525000", "105518.525000", "105519.525000", "105520.525000", "105521.525000", "105522.525000", "105523.525000", "105524.525000", "105525.525000", "105526.525000", "105527.525000", "105528.525000", "105529.525000", "105530.525000", "105531.525000", "105532.525000", "105533.525000", "105534.525000", "105535.525000", "105536.525000", "105537.525000", "105538.525000", "105539.525000", "105540.525000", "105541.525000", "105542.525000", "105543.525000", "105544.525000", "105545.525000", "105546.525000", "105547.525000", "105548.525000", "105549.525000", "105550.525000", "105551.525000", "105552.525000", "105553.525000", "105554.525000", "105555.525000", "105556.525000", "105557.525000", "105558.525000", "105559.525000", "105600.525000", "105601.525000", "105602.525000", "105603.525000", "105604.525000", "105605.525000", "105606.525000", "105607.525000", "105608.525000", "105609.525000", "105610.525000", "105611.525000", "105612.525000", "105613.525000", "105614.525000", "105615.525000", "105616.525000", "105617.525000", "105618.525000", "105619.525000", "105620.525000", "105621.525000", "105622.525000", "105623.525000", "105624.525000", "105625.525000", "105626.525000", "105627.525000", "105628.525000", "105629.525000", "105630.525000", "105631.525000"],
      "ContentTime": ["105309.284000", "105309.296000", "105309.299000", "105309.302000", "105309.305000", "105309.308000", "105309.311000", "105314.283000", "105314.293000", "105314.296000", "105314.299000", "105314.301000", "105314.304000", "105314.307000", "105319.283000", "105319.286000", "105319.289000", "105319.292000", "105319.294000", "105319.303000", "105319.306000", "105324.284000", "105324.287000", "105324.290000", "105324.293000", "105324.295000", "105324.298000", "105324.301000", "105329.283000", "105329.286000", "105329.289000", "105329.292000", "105329.294000", "105329.297000", "105329.300000", "105334.283000", "105334.286000", "105334.289000", "105334.292000", "105334.296000", "105334.299000", "105334.302000", "105339.284000", "105339.287000", "105339.290000", "105339.292000", "105339.295000", "105339.298000", "105339.301000", "105339.304000", "105349.283000", "105349.286000", "105349.289000", "105349.292000", "105349.295000", "105349.297000", "105349.300000", "105349.303000", "105349.306000", "105349.309000", "105349.312000", "105349.315000", "105349.317000", "105349.322000", "105354.283000", "105354.286000", "105354.289000", "105354.292000", "105354.294000", "105354.297000", "105354.300000", "105359.284000", "105359.287000", "105359.290000", "105359.292000", "105359.295000", "105359.298000", "105359.301000", "105404.283000", "105404.286000", "105404.289000", "105404.292000", "105404.294000", "105404.300000", "105404.303000", "105409.283000", "105409.286000", "105409.289000", "105409.292000", "105409.294000", "105409.297000", "105409.300000", "105414.284000", "105414.287000", "105414.290000", "105414.293000", "105414.296000", "105414.299000", "105414.302000", "105419.283000", "105419.286000", "105419.289000", "105419.292000", "105419.295000", "105419.297000", "105419.300000", "105424.283000", "105424.286000", "105424.289000", "105424.292000", "105424.310000", "105424.313000", "105424.315000", "105429.283000", "105429.286000", "105429.289000", "105429.292000", "105429.295000", "105429.298000", "105429.300000", "105434.284000", "105434.287000", "105434.290000", "105434.293000", "105434.296000", "105434.298000", "105434.301000", "105439.283000", "105439.286000", "105439.289000", "105439.291000", "105439.294000", "105439.297000", "105439.300000", "105439.303000", "105444.283000", "105444.286000", "105444.289000", "105444.291000", "105444.294000", "105444.297000", "105444.300000", "105449.284000", "105449.287000", "105449.290000", "105449.293000", "105449.295000", "105449.298000", "105449.301000", "105454.283000", "105454.286000", "105454.289000", "105454.292000", "105454.294000", "105454.297000", "105454.300000", "105459.283000", "105459.286000", "105459.289000", "105459.292000", "105459.294000", "105459.297000", "105459.300000", "105504.283000", "105504.286000", "105504.289000", "105504.292000", "105504.294000", "105504.297000", "105504.300000", "105509.284000", "105509.287000", "105509.290000", "105509.293000", "105509.299000", "105509.302000", "105509.305000", "105514.283000", "105514.286000", "105514.289000", "105514.291000", "105514.294000", "105514.297000", "105514.300000", "105519.283000", "105519.286000", "105519.289000", "105519.292000", "105519.295000", "105524.284000", "105524.287000", "105524.290000", "105524.293000", "105524.296000", "105529.283000", "105529.286000", "105529.289000", "105529.292000", "105529.295000", "105534.283000", "105534.286000", "105534.289000", "105534.292000", "105534.294000", "105539.283000", "105539.286000", "105539.289000", "105539.291000", "105539.295000", "105544.284000", "105544.287000", "105544.290000", "105544.293000", "105544.296000", "105549.283000", "105549.286000", "105549.289000", "105549.292000", "105549.295000", "105554.283000", "105554.286000", "105554.289000", "105554.292000", "105554.295000", "105559.284000", "105559.287000", "105559.290000", "105559.293000", "105559.295000", "105604.283000", "105604.286000", "105604.289000", "105604.292000", "105604.295000", "105609.283000", "105609.286000", "105609.289000", "105609.292000", "105609.294000", "105614.283000", "105614.286000", "105614.289000", "105614.292000", "105614.294000", "105619.284000", "105619.287000", "105619.290000", "105619.293000", "105619.296000", "105624.283000", "105624.286000", "105624.289000", "105624.292000", "105624.294000", "105629.283000", "105629.286000", "105629.289000", "105629.292000", "105629.295000", "105633.640000", "105633.644000", "105633.646000", "105633.649000", "105633.653000"],
      "InstanceCreationTime": ["105309.284000", "105309.296000", "105309.299000", "105309.302000", "105309.305000", "105309.308000", "105309.311000", "105314.283000", "105314.293000", "105314.296000", "105314.299000", "105314.301000", "105314.304000", "105314.307000", "105319.283000", "105319.286000", "105319.289000", "105319.292000", "105319.294000", "105319.303000", "105319.306000", "105324.284000", "105324.287000", "105324.290000", "105324.293000", "105324.295000", "105324.298000", "105324.301000", "105329.283000", "105329.286000", "105329.289000", "105329.292000", "105329.294000", "105329.297000", "105329.300000", "105334.283000", "105334.286000", "105334.289000", "105334.292000", "105334.296000", "105334.299000", "105334.302000", "105339.284000", "105339.287000", "105339.290000", "105339.292000", "105339.295000", "105339.298000", "105339.301000", "105339.304000", "105349.283000", "105349.286000", "105349.289000", "105349.292000", "105349.295000", "105349.297000", "105349.300000", "105349.303000", "105349.306000", "105349.309000", "105349.312000", "105349.315000", "105349.317000", "105349.322000", "105354.283000", "105354.286000", "105354.289000", "105354.292000", "105354.294000", "105354.297000", "105354.300000", "105359.284000", "105359.287000", "105359.290000", "105359.292000", "105359.295000", "105359.298000", "105359.301000", "105404.283000", "105404.286000", "105404.289000", "105404.292000", "105404.294000", "105404.300000", "105404.303000", "105409.283000", "105409.286000", "105409.289000", "105409.292000", "105409.294000", "105409.297000", "105409.300000", "105414.284000", "105414.287000", "105414.290000", "105414.293000", "105414.296000", "105414.299000", "105414.302000", "105419.283000", "105419.286000", "105419.289000", "105419.292000", "105419.295000", "105419.297000", "105419.300000", "105424.283000", "105424.286000", "105424.289000", "105424.292000", "105424.310000", "105424.313000", "105424.315000", "105429.283000", "105429.286000", "105429.289000", "105429.292000", "105429.295000", "105429.298000", "105429.300000", "105434.284000", "105434.287000", "105434.290000", "105434.293000", "105434.296000", "105434.298000", "105434.301000", "105439.283000", "105439.286000", "105439.289000", "105439.291000", "105439.294000", "105439.297000", "105439.300000", "105439.303000", "105444.283000", "105444.286000", "105444.289000", "105444.291000", "105444.294000", "105444.297000", "105444.300000", "105449.284000", "105449.287000", "105449.290000", "105449.293000", "105449.295000", "105449.298000", "105449.301000", "105454.283000", "105454.286000", "105454.289000", "105454.292000", "105454.294000", "105454.297000", "105454.300000", "105459.283000", "105459.286000", "105459.289000", "105459.292000", "105459.294000", "105459.297000", "105459.300000", "105504.283000", "105504.286000", "105504.289000", "105504.292000", "105504.294000", "105504.297000", "105504.300000", "105509.284000", "105509.287000", "105509.290000", "105509.293000", "105509.299000", "105509.302000", "105509.305000", "105514.283000", "105514.286000", "105514.289000", "105514.291000", "105514.294000", "105514.297000", "105514.300000", "105519.283000", "105519.286000", "105519.289000", "105519.292000", "105519.295000", "105524.284000", "105524.287000", "105524.290000", "105524.293000", "105524.296000", "105529.283000", "105529.286000", "105529.289000", "105529.292000", "105529.295000", "105534.283000", "105534.286000", "105534.289000", "105534.292000", "105534.294000", "105539.283000", "105539.286000", "105539.289000", "105539.291000", "105539.295000", "105544.284000", "105544.287000", "105544.290000", "105544.293000", "105544.296000", "105549.283000", "105549.286000", "105549.289000", "105549.292000", "105549.295000", "105554.283000", "105554.286000", "105554.289000", "105554.292000", "105554.295000", "105559.284000", "105559.287000", "105559.290000", "105559.293000", "105559.295000", "105604.283000", "105604.286000", "105604.289000", "105604.292000", "105604.295000", "105609.283000", "105609.286000", "105609.289000", "105609.292000", "105609.294000", "105614.283000", "105614.286000", "105614.289000", "105614.292000", "105614.294000", "105619.284000", "105619.287000", "105619.290000", "105619.293000", "105619.296000", "105624.283000", "105624.286000", "105624.289000", "105624.292000", "105624.294000", "105629.283000", "105629.286000", "105629.289000", "105629.292000", "105629.295000", "105633.640000", "105633.644000", "105633.646000", "105633.649000", "105633.653000"],
      "InstanceNumber": [1, 2, 3, 4, 5, 6, 7, 8, 9, 10, 11, 12, 13, 14, 15, 16, 17, 18, 19, 20, 21, 22, 23, 24, 25, 26, 27, 28, 29, 30, 31, 32, 33, 34, 35, 36, 37, 38, 39, 40, 41, 42, 43, 44, 45, 46, 47, 48, 49, 50, 51, 52, 53, 54, 55, 56, 57, 58, 59, 60, 61, 62, 63, 64, 65, 66, 67, 68, 69, 70, 71, 72, 73, 74, 75, 76, 77, 78, 79, 80, 81, 82, 83, 84, 85, 86, 87, 88, 89, 90, 91, 92, 93, 94, 95, 96, 97, 98, 99, 100, 101, 102, 103, 104, 105, 106, 107, 108, 109, 110, 111, 112, 113, 114, 115, 116, 117, 118, 119, 120, 121, 122, 123, 124, 125, 126, 127, 128, 129, 130, 131, 132, 133, 134, 135, 136, 137, 138, 139, 140, 141, 142, 143, 144, 145, 146, 147, 148, 149, 150, 151, 152, 153, 154, 155, 156, 157, 158, 159, 160, 161, 162, 163, 164, 165, 166, 167, 168, 169, 170, 171, 172, 173, 174, 175, 176, 177, 178, 179, 180, 181, 182, 183, 184, 185, 186, 187, 188, 189, 190, 191, 192, 193, 194, 195, 196, 197, 198, 199, 200, 201, 202, 203, 204, 205, 206, 207, 208, 209, 210, 211, 212, 213, 214, 215, 216, 217, 218, 219, 220, 221, 222, 223, 224, 225, 226, 227, 228, 229, 230, 231, 232, 233, 234, 235, 236, 237, 238, 239, 240, 241, 242, 243, 244, 245, 246, 247, 248, 249, 250, 251, 252, 253, 254, 255, 256, 257, 258, 259, 260, 261, 262, 263, 264],
      "LargestImagePixelValue": [41631, 40008, 39353, 39036, 39080, 38517, 38804, 38495, 38441, 38711, 37999, 38536, 38118, 38189, 38455, 38098, 38492, 38177, 38539, 38251, 38549, 38293, 37951, 38127, 38615, 38145, 38661, 38289, 38066, 38133, 38290, 38387, 38297, 38251, 38257, 38112, 38120, 38227, 38319, 38208, 38390, 38130, 37955, 38141, 37836, 37888, 37822, 38096, 38400, 37931, 38307, 38104, 38261, 38485, 38248, 38249, 38140, 38293, 38540, 38144, 37984, 38378, 37920, 37871, 37996, 37919, 38308, 38096, 38455, 38227, 38250, 38076, 38236, 38286, 38493, 37808, 38065, 38612, 38137, 38619, 38223, 37878, 38149, 38232, 38178, 38292, 37917, 38312, 38029, 37951, 38053, 37983, 38048, 38771, 37982, 38337, 38602, 38037, 38157, 38687, 38176, 38895, 38381, 38725, 38024, 38816, 38619, 38356, 38252, 38721, 38492, 37956, 38474, 37735, 38195, 38530, 38357, 38667, 38041, 38195, 38251, 38525, 38171, 39087, 38503, 38591, 39332, 38441, 38621, 38615, 38686, 38499, 38536, 38527, 38602, 38078, 38701, 38643, 38498, 38685, 37948, 38636, 37809, 37948, 38255, 37870, 37988, 38061, 38451, 37789, 38562, 38680, 37956, 38065, 37878, 38503, 38036, 38620, 38466, 38657, 38480, 37980, 38674, 38164, 38307, 38200, 38114, 38194, 38825, 38251, 38659, 39165, 38157, 38847, 38290, 38944, 38037, 38602, 39303, 38638, 38289, 38729, 38962, 38241, 38700, 38386, 38223, 38399, 38640, 38548, 38301, 38677, 38054, 38105, 38574, 37835, 38443, 37873, 37715, 38432, 38251, 38434, 38689, 38200, 39021, 38868, 38325, 38890, 38592, 37851, 38822, 38397, 38659, 38554, 38032, 38908, 38607, 38484, 38242, 39030, 38865, 38967, 38823, 38715, 38964, 38293, 38458, 38918, 38801, 38793, 38647, 39019, 38271, 38720, 38262, 38846, 38567, 38652, 38975, 38851, 38490, 38912, 38542, 37862, 38806, 38618, 38658, 38352, 37791, 38526, 38750, 37870, 38422, 38799, 38346, 38521, 38956, 38692, 38433, 38187, 38782, 38534, 38281, 38786],
      "WindowCenter": [10262.0, 10227.0, 10203.0, 10187.0, 10174.0, 10154.0, 10156.0, 10156.0, 10158.0, 10170.0, 10169.0, 10165.0, 10161.0, 10158.0, 10157.0, 10152.0, 10156.0, 10151.0, 10159.0, 10162.0, 10170.0, 10185.0, 10189.0, 10198.0, 10208.0, 10193.0, 10195.0, 10195.0, 10189.0, 10191.0, 10190.0, 10195.0, 10189.0, 10190.0, 10186.0, 10189.0, 10196.0, 10198.0, 10202.0, 10198.0, 10202.0, 10192.0, 10184.0, 10188.0, 10176.0, 10174.0, 10180.0, 10185.0, 10186.0, 10181.0, 10186.0, 10181.0, 10193.0, 10196.0, 10200.0, 10194.0, 10196.0, 10196.0, 10193.0, 10192.0, 10197.0, 10195.0, 10190.0, 10183.0, 10187.0, 10176.0, 10179.0, 10173.0, 10176.0, 10173.0, 10178.0, 10177.0, 10173.0, 10180.0, 10177.0, 10174.0, 10172.0, 10176.0, 10171.0, 10177.0, 10179.0, 10180.0, 10187.0, 10192.0, 10187.0, 10197.0, 10182.0, 10194.0, 10201.0, 10196.0, 10203.0, 10197.0, 10195.0, 10206.0, 10194.0, 10200.0, 10201.0, 10189.0, 10190.0, 10193.0, 10180.0, 10195.0, 10186.0, 10191.0, 10187.0, 10189.0, 10189.0, 10183.0, 10184.0, 10198.0, 10201.0, 10209.0, 10217.0, 10200.0, 10203.0, 10197.0, 10187.0, 10191.0, 10186.0, 10184.0, 10184.0, 10186.0, 10174.0, 10182.0, 10171.0, 10174.0, 10184.0, 10176.0, 10181.0, 10183.0, 10183.0, 10184.0, 10184.0, 10183.0, 10183.0, 10179.0, 10196.0, 10192.0, 10200.0, 10214.0, 10204.0, 10223.0, 10216.0, 10214.0, 10218.0, 10209.0, 10206.0, 10205.0, 10205.0, 10192.0, 10206.0, 10202.0, 10184.0, 10184.0, 10189.0, 10194.0, 10189.0, 10201.0, 10198.0, 10194.0, 10196.0, 10190.0, 10199.0, 10190.0, 10194.0, 10182.0, 10169.0, 10158.0, 10160.0, 10155.0, 10155.0, 10171.0, 10169.0, 10184.0, 10191.0, 10191.0, 10180.0, 10178.0, 10188.0, 10169.0, 10163.0, 10168.0, 10174.0, 10176.0, 10186.0, 10193.0, 10187.0, 10181.0, 10179.0, 10173.0, 10174.0, 10180.0, 10180.0, 10189.0, 10204.0, 10202.0, 10204.0, 10193.0, 10186.0, 10180.0, 10169.0, 10169.0, 10176.0, 10166.0, 10184.0, 10183.0, 10180.0, 10185.0, 10184.0, 10168.0, 10184.0, 10180.0, 10184.0, 10186.0, 10179.0, 10185.0, 10191.0, 10181.0, 10179.0, 10183.0, 10173.0, 10181.0, 10177.0, 10184.0, 10195.0, 10193.0, 10193.0, 10200.0, 10201.0, 10200.0, 10198.0, 10202.0, 10195.0, 10203.0, 10196.0, 10196.0, 10200.0, 10193.0, 10199.0, 10192.0, 10188.0, 10193.0, 10182.0, 10168.0, 10173.0, 10163.0, 10161.0, 10160.0, 10152.0, 10163.0, 10165.0, 10152.0, 10157.0, 10168.0, 10159.0, 10163.0, 10170.0, 10171.0, 10176.0, 10173.0, 10180.0, 10172.0, 10171.0, 10171.0],
      "WindowWidth": [22252.0, 22134.0, 22057.0, 22006.0, 21965.0, 21918.0, 21914.0, 21913.0, 21921.0, 21948.0, 21946.0, 21936.0, 21926.0, 21917.0, 21914.0, 21904.0, 21910.0, 21904.0, 21920.0, 21926.0, 21945.0, 21979.0, 21993.0, 22016.0, 22036.0, 22004.0, 22003.0, 22002.0, 21993.0, 21997.0, 21993.0, 22006.0, 21993.0, 21993.0, 21982.0, 21991.0, 22010.0, 22014.0, 22022.0, 22015.0, 22019.0, 21995.0, 21979.0, 21986.0, 21961.0, 21957.0, 21971.0, 21979.0, 21981.0, 21972.0, 21982.0, 21974.0, 21998.0, 22005.0, 22015.0, 22003.0, 22007.0, 22007.0, 22000.0, 22000.0, 22010.0, 22006.0, 21997.0, 21982.0, 21986.0, 21963.0, 21966.0, 21952.0, 21958.0, 21952.0, 21965.0, 21961.0, 21956.0, 21969.0, 21962.0, 21957.0, 21952.0, 21960.0, 21951.0, 21963.0, 21970.0, 21974.0, 21987.0, 21999.0, 21989.0, 22008.0, 21979.0, 22004.0, 22022.0, 22011.0, 22026.0, 22013.0, 22008.0, 22027.0, 22003.0, 22014.0, 22018.0, 21995.0, 21995.0, 21996.0, 21969.0, 22000.0, 21984.0, 21994.0, 21987.0, 21987.0, 21986.0, 21974.0, 21977.0, 22009.0, 22018.0, 22039.0, 22056.0, 22021.0, 22025.0, 22011.0, 21987.0, 21993.0, 21984.0, 21977.0, 21979.0, 21983.0, 21958.0, 21971.0, 21947.0, 21953.0, 21975.0, 21959.0, 21970.0, 21975.0, 21974.0, 21978.0, 21976.0, 21975.0, 21974.0, 21967.0, 22001.0, 21993.0, 22014.0, 22045.0, 22026.0, 22068.0, 22054.0, 22050.0, 22058.0, 22039.0, 22032.0, 22029.0, 22030.0, 22000.0, 22027.0, 22017.0, 21980.0, 21981.0, 21989.0, 21999.0, 21991.0, 22015.0, 22008.0, 22003.0, 22006.0, 21993.0, 22009.0, 21992.0, 21998.0, 21974.0, 21941.0, 21917.0, 21919.0, 21908.0, 21907.0, 21943.0, 21942.0, 21976.0, 21993.0, 21989.0, 21967.0, 21960.0, 21980.0, 21939.0, 21925.0, 21935.0, 21950.0, 21957.0, 21981.0, 21997.0, 21984.0, 21971.0, 21964.0, 21951.0, 21955.0, 21967.0, 21972.0, 21992.0, 22025.0, 22023.0, 22026.0, 22005.0, 21984.0, 21969.0, 21942.0, 21940.0, 21954.0, 21936.0, 21972.0, 21970.0, 21965.0, 21974.0, 21971.0, 21942.0, 21974.0, 21964.0, 21975.0, 21981.0, 21964.0, 21976.0, 21990.0, 21970.0, 21964.0, 21971.0, 21949.0, 21966.0, 21960.0, 21974.0, 21999.0, 21998.0, 21999.0, 22014.0, 22017.0, 22016.0, 22011.0, 22019.0, 22005.0, 22021.0, 22005.0, 22004.0, 22010.0, 21998.0, 22007.0, 21993.0, 21987.0, 21996.0, 21974.0, 21942.0, 21945.0, 21923.0, 21919.0, 21917.0, 21903.0, 21927.0, 21931.0, 21902.0, 21912.0, 21935.0, 21917.0, 21926.0, 21938.0, 21942.0, 21954.0, 21950.0, 21963.0, 21947.0, 21942.0, 21942.0]
    },
    "slices": {}
  }
}