{
  "AcquisitionMatrixPE": 104,
  "AcquisitionNumber": 1,
  "AcquisitionTime": "10:42:23.510000",
  "BandwidthPerPixelPhaseEncode": 16.578,
  "BaseResolution": 104,
  "BodyPartExamined": "BRAIN",
  "ConsistencyInfo": "N4_VE11C_LATEST_20160120",
  "ConversionSoftware": "dcm2niix",
  "ConversionSoftwareVersion": "v1.0.20190410  GCC6.3.0",
  "DerivedVendorReportedEchoSpacing": 0.000580009,
  "DeviceSerialNumber": "166018",
  "DwellTime": 2.1e-06,
  "EchoTime": 0.037,
  "EchoTrainLength": 104,
  "EffectiveEchoSpacing": 0.000580009,
  "FlipAngle": 68,
  "ImageComments": "Unaliased_MB6_PE3_LB",
  "ImageOrientationPatientDICOM": [0.995442, 0.0831316, 0.0467403, -0.0820152, 0.996309, -0.0253203],
  "ImageType": [
    "ORIGINAL",
    "PRIMARY",
    "M",
    "MB",
    "ND",
    "MOSAIC"
],
  "ImagingFrequency": 123.191,
  "InPlanePhaseEncodingDirectionDICOM": "COL",
  "InstitutionAddress": "Washington_Place_6_NYC_NYC_US_10003",
  "InstitutionName": "NYU_Center_for_Brain_Imaging",
  "InstitutionalDepartmentName": "Department",
  "MRAcquisitionType": "2D",
  "MagneticFieldStrength": 3,
  "Manufacturer": "Siemens",
  "ManufacturersModelName": "Prisma",
  "Modality": "MR",
  "MultibandAccelerationFactor": 6,
  "PartialFourier": 1,
  "PatientPosition": "HFS",
  "PercentPhaseFOV": 100,
  "PhaseEncodingDirection": "j",
  "PhaseEncodingSteps": 104,
  "PhaseResolution": 1,
  "PixelBandwidth": 2290,
  "ProcedureStepDescription": "Investigators_Winawer",
  "ProtocolName": "task-sfprescaled_cmrr_mbepi_s6_2mm_66sl_PA_TR1.0",
  "PulseSequenceDetails": "%CustomerSeq%_cmrr_mbep2d_bold",
  "ReceiveCoilActiveElements": "HC1-7",
  "ReceiveCoilName": "HeadNeck_64",
  "ReconMatrixPE": 104,
  "RepetitionTime": 1,
  "SAR": 0.0685127,
  "ScanOptions": "FS",
  "ScanningSequence": "EP",
  "SequenceName": "epfid2d1_104",
  "SequenceVariant": "SK_SS",
  "SeriesDescription": "task-sfprescaled_cmrr_mbepi_s6_2mm_66sl_PA_TR1.0",
  "SeriesNumber": 20,
  "ShimSetting": [277, -12593, -8545, 325, -6, -111, -35, 26],
  "SliceThickness": 2,
  "SliceTiming": [0, 0.5325, 0.0875, 0.6225, 0.1775, 0.7125, 0.265, 0.8, 0.355, 0.89, 0.445, 0, 0.5325, 0.0875, 0.6225, 0.1775, 0.7125, 0.265, 0.8, 0.355, 0.89, 0.445, 0, 0.5325, 0.0875, 0.6225, 0.1775, 0.7125, 0.265, 0.8, 0.355, 0.89, 0.445, 0, 0.5325, 0.0875, 0.6225, 0.1775, 0.7125, 0.265, 0.8, 0.355, 0.89, 0.445, 0, 0.5325, 0.0875, 0.6225, 0.1775, 0.7125, 0.265, 0.8, 0.355, 0.89, 0.445, 0, 0.5325, 0.0875, 0.6225, 0.1775, 0.7125, 0.265, 0.8, 0.355, 0.89, 0.445],
  "SoftwareVersions": "syngo_MR_E11",
  "SpacingBetweenSlices": 2,
  "StationName": "AWP166018",
  "TaskName": "sfprescaled",
  "TotalReadoutTime": 0.0597409,
  "TxRefAmp": 203.092,
  "WipMemBlock": "7de05b99-da33-4cf8-aed5-c1e525a8e42a||Sequence: R016 ve11c/master r/8780670; Nov 27 2017 15:05:12 by eja",
  "dcmmeta_affine": [
    [-1.990883708000183, -0.16403035819530487, 0.09734547138214111, 113.74717712402344],
    [-0.16626325249671936, 1.9926187992095947, -0.04274289309978485, -73.30086517333984],
    [0.09348063915967941, 0.05064055323600769, 1.997172236442566, -41.04076385498047],
    [0.0, 0.0, 0.0, 1.0]
],
  "dcmmeta_reorient_transform": [
    [0.0, -1.0, 0.0, 103.0],
    [1.0, 0.0, 0.0, 0.0],
    [0.0, 0.0, 1.0, 0.0],
    [0.0, 0.0, 0.0, 1.0]
],
  "dcmmeta_shape": [104, 104, 66, 264],
  "dcmmeta_slice_dim": 2,
  "dcmmeta_version": 0.6,
  "global": {
    "const": {
      "AccessionNumber": "jv3y3i0c",
  "NumberOfVolumes": 264,
      "AcquisitionMatrix": [104, 0, 0, 104],
      "AngioFlag": "N",
      "BitsAllocated": 16,
      "BitsStored": 16,
      "BodyPartExamined": "BRAIN",
      "Columns": 936,
      "EchoNumbers": 1,
      "EchoTime": 37.0,
      "EchoTrainLength": 104,
      "FlipAngle": 68.0,
      "HighBit": 15,
      "ImageOrientationPatient": [0.99544184899904, 0.08313162831178, 0.04674032130395, -0.0820151813389, 0.99630938650778, -0.0253202761922],
      "ImagePositionPatient": [-856.82303483909, -1030.0337956389, -53.646265343491],
      "ImageType": [
        "ORIGINAL",
        "PRIMARY",
        "M",
        "MB",
        "ND",
        "MOSAIC"
],
      "ImagedNucleus": "1H",
      "ImagingFrequency": 123.191083,
      "InPlanePhaseEncodingDirection": "COL",
      "MRAcquisitionType": "2D",
      "MagneticFieldStrength": 3.0,
      "Manufacturer": "SIEMENS",
      "ManufacturerModelName": "Prisma",
      "Modality": "MR",
      "NumberOfAverages": 1.0,
      "NumberOfPhaseEncodingSteps": 104,
      "PercentPhaseFieldOfView": 100.0,
      "PercentSampling": 100.0,
      "PerformedProcedureStepStartTime": "100021.887000",
      "PhotometricInterpretation": "MONOCHROME2",
      "PixelBandwidth": 2290.0,
      "PixelRepresentation": 0,
      "PixelSpacing": [2.0, 2.0],
      "ProtocolName": "task-sfprescaled_cmrr_mbepi_s6_2mm_66sl_PA_TR1.0",
      "RepetitionTime": 1000.0,
      "Rows": 936,
      "SAR": 0.06851266208846,
      "SamplesPerPixel": 1,
      "ScanOptions": "FS",
      "ScanningSequence": "EP",
      "SequenceName": "epfid2d1_104",
      "SequenceVariant": [
        "SK",
        "SS"
],
      "SeriesDescription": "task-sfprescaled_cmrr_mbepi_s6_2mm_66sl_PA_TR1.0",
      "SeriesNumber": 20,
      "SeriesTime": "104324.019000",
      "SliceLocation": -33.879805977721,
      "SliceThickness": 2.0,
      "SmallestImagePixelValue": 0,
      "SoftwareVersions": "syngo MR E11",
      "SpacingBetweenSlices": 2.0000000256817,
      "SpecificCharacterSet": "ISO_IR 100",
      "StudyID": "1",
      "StudyTime": "100021.836000",
      "TransmitCoilName": "Body",
      "VariableFlipAngleFlag": "N",
      "WindowCenterWidthExplanation": "Algo1",
      "dBdt": 0.0},
    "slices": {}
  },
  "time": {
    "samples": {
      "AcquisitionNumber": [1, 2, 3, 4, 5, 6, 7, 8, 9, 10, 11, 12, 13, 14, 15, 16, 17, 18, 19, 20, 21, 22, 23, 24, 25, 26, 27, 28, 29, 30, 31, 32, 33, 34, 35, 36, 37, 38, 39, 40, 41, 42, 43, 44, 45, 46, 47, 48, 49, 50, 51, 52, 53, 54, 55, 56, 57, 58, 59, 60, 61, 62, 63, 64, 65, 66, 67, 68, 69, 70, 71, 72, 73, 74, 75, 76, 77, 78, 79, 80, 81, 82, 83, 84, 85, 86, 87, 88, 89, 90, 91, 92, 93, 94, 95, 96, 97, 98, 99, 100, 101, 102, 103, 104, 105, 106, 107, 108, 109, 110, 111, 112, 113, 114, 115, 116, 117, 118, 119, 120, 121, 122, 123, 124, 125, 126, 127, 128, 129, 130, 131, 132, 133, 134, 135, 136, 137, 138, 139, 140, 141, 142, 143, 144, 145, 146, 147, 148, 149, 150, 151, 152, 153, 154, 155, 156, 157, 158, 159, 160, 161, 162, 163, 164, 165, 166, 167, 168, 169, 170, 171, 172, 173, 174, 175, 176, 177, 178, 179, 180, 181, 182, 183, 184, 185, 186, 187, 188, 189, 190, 191, 192, 193, 194, 195, 196, 197, 198, 199, 200, 201, 202, 203, 204, 205, 206, 207, 208, 209, 210, 211, 212, 213, 214, 215, 216, 217, 218, 219, 220, 221, 222, 223, 224, 225, 226, 227, 228, 229, 230, 231, 232, 233, 234, 235, 236, 237, 238, 239, 240, 241, 242, 243, 244, 245, 246, 247, 248, 249, 250, 251, 252, 253, 254, 255, 256, 257, 258, 259, 260, 261, 262, 263, 264],
      "AcquisitionTime": ["104223.510000", "104224.510000", "104225.510000", "104226.510000", "104227.510000", "104228.510000", "104229.510000", "104230.510000", "104231.510000", "104232.510000", "104233.510000", "104234.510000", "104235.510000", "104236.510000", "104237.510000", "104238.510000", "104239.510000", "104240.510000", "104241.510000", "104242.510000", "104243.510000", "104244.510000", "104245.510000", "104246.510000", "104247.510000", "104248.510000", "104249.510000", "104250.510000", "104251.510000", "104252.510000", "104253.510000", "104254.510000", "104255.510000", "104256.510000", "104257.510000", "104258.510000", "104259.510000", "104300.510000", "104301.510000", "104302.510000", "104303.510000", "104304.510000", "104305.510000", "104306.510000", "104307.510000", "104308.510000", "104309.510000", "104310.510000", "104311.510000", "104312.510000", "104313.510000", "104314.510000", "104315.510000", "104316.510000", "104317.510000", "104318.510000", "104319.510000", "104320.510000", "104321.510000", "104322.510000", "104323.510000", "104324.510000", "104325.510000", "104326.510000", "104327.510000", "104328.510000", "104329.510000", "104330.510000", "104331.510000", "104332.510000", "104333.510000", "104334.510000", "104335.510000", "104336.510000", "104337.510000", "104338.510000", "104339.510000", "104340.510000", "104341.510000", "104342.510000", "104343.510000", "104344.510000", "104345.510000", "104346.510000", "104347.510000", "104348.510000", "104349.510000", "104350.510000", "104351.510000", "104352.510000", "104353.510000", "104354.510000", "104355.510000", "104356.510000", "104357.510000", "104358.510000", "104359.510000", "104400.510000", "104401.510000", "104402.510000", "104403.510000", "104404.510000", "104405.510000", "104406.510000", "104407.510000", "104408.510000", "104409.510000", "104410.510000", "104411.510000", "104412.510000", "104413.510000", "104414.510000", "104415.510000", "104416.510000", "104417.510000", "104418.510000", "104419.510000", "104420.510000", "104421.510000", "104422.510000", "104423.510000", "104424.510000", "104425.510000", "104426.510000", "104427.510000", "104428.510000", "104429.510000", "104430.510000", "104431.510000", "104432.510000", "104433.510000", "104434.510000", "104435.510000", "104436.510000", "104437.510000", "104438.510000", "104439.510000", "104440.510000", "104441.510000", "104442.510000", "104443.510000", "104444.510000", "104445.510000", "104446.510000", "104447.510000", "104448.510000", "104449.510000", "104450.510000", "104451.510000", "104452.510000", "104453.510000", "104454.510000", "104455.510000", "104456.510000", "104457.510000", "104458.510000", "104459.510000", "104500.510000", "104501.510000", "104502.510000", "104503.510000", "104504.510000", "104505.510000", "104506.510000", "104507.510000", "104508.510000", "104509.510000", "104510.510000", "104511.510000", "104512.510000", "104513.510000", "104514.510000", "104515.510000", "104516.510000", "104517.510000", "104518.510000", "104519.510000", "104520.510000", "104521.510000", "104522.510000", "104523.510000", "104524.510000", "104525.510000", "104526.510000", "104527.510000", "104528.510000", "104529.510000", "104530.510000", "104531.510000", "104532.510000", "104533.510000", "104534.510000", "104535.510000", "104536.510000", "104537.510000", "104538.510000", "104539.510000", "104540.510000", "104541.510000", "104542.510000", "104543.510000", "104544.510000", "104545.510000", "104546.510000", "104547.510000", "104548.510000", "104549.510000", "104550.510000", "104551.510000", "104552.510000", "104553.510000", "104554.510000", "104555.510000", "104556.510000", "104557.510000", "104558.510000", "104559.510000", "104600.510000", "104601.510000", "104602.510000", "104603.510000", "104604.510000", "104605.510000", "104606.510000", "104607.510000", "104608.510000", "104609.510000", "104610.510000", "104611.510000", "104612.510000", "104613.510000", "104614.510000", "104615.510000", "104616.510000", "104617.510000", "104618.510000", "104619.510000", "104620.510000", "104621.510000", "104622.510000", "104623.510000", "104624.510000", "104625.510000", "104626.510000", "104627.510000", "104628.510000", "104629.510000", "104630.510000", "104631.510000", "104632.510000", "104633.510000", "104634.510000", "104635.510000", "104636.510000", "104637.510000", "104638.510000", "104639.510000", "104640.510000", "104641.510000", "104642.510000", "104643.510000", "104644.510000", "104645.510000", "104646.510000"],
      "ContentTime": ["104324.021000", "104324.024000", "104324.027000", "104324.030000", "104324.033000", "104324.036000", "104324.039000", "104329.021000", "104329.024000", "104329.032000", "104329.035000", "104329.038000", "104329.041000", "104329.044000", "104334.021000", "104334.024000", "104334.027000", "104334.030000", "104334.032000", "104334.042000", "104334.045000", "104339.021000", "104339.024000", "104339.027000", "104339.030000", "104339.033000", "104339.035000", "104339.038000", "104344.021000", "104344.024000", "104344.027000", "104344.030000", "104344.036000", "104344.039000", "104344.042000", "104349.021000", "104349.024000", "104349.027000", "104349.030000", "104349.032000", "104349.035000", "104349.038000", "104354.021000", "104354.024000", "104354.027000", "104354.030000", "104354.032000", "104354.035000", "104354.038000", "104359.020000", "104359.026000", "104359.029000", "104359.032000", "104359.034000", "104359.037000", "104359.040000", "104404.021000", "104404.024000", "104404.027000", "104404.030000", "104404.032000", "104404.035000", "104404.038000", "104409.021000", "104409.024000", "104409.027000", "104409.030000", "104409.033000", "104409.035000", "104409.038000", "104414.021000", "104414.024000", "104414.027000", "104414.046000", "104414.049000", "104414.052000", "104414.055000", "104419.021000", "104419.024000", "104419.027000", "104419.030000", "104419.033000", "104419.036000", "104424.021000", "104424.024000", "104424.027000", "104424.030000", "104424.033000", "104424.035000", "104424.038000", "104424.041000", "104429.021000", "104429.024000", "104429.027000", "104429.030000", "104429.033000", "104429.035000", "104429.038000", "104434.020000", "104434.023000", "104434.026000", "104434.029000", "104434.031000", "104434.034000", "104434.037000", "104439.021000", "104439.024000", "104439.027000", "104439.030000", "104439.033000", "104439.036000", "104439.038000", "104444.021000", "104444.024000", "104444.027000", "104444.030000", "104444.033000", "104444.035000", "104444.038000", "104449.021000", "104449.024000", "104449.027000", "104449.030000", "104449.033000", "104449.036000", "104449.038000", "104454.021000", "104454.024000", "104454.027000", "104454.030000", "104454.033000", "104454.035000", "104454.038000", "104459.021000", "104459.024000", "104459.036000", "104459.039000", "104459.042000", "104459.045000", "104459.048000", "104504.021000", "104504.024000", "104504.027000", "104504.030000", "104504.032000", "104504.035000", "104504.038000", "104509.020000", "104509.023000", "104509.026000", "104509.029000", "104509.032000", "104509.034000", "104509.037000", "104514.021000", "104514.024000", "104514.027000", "104514.030000", "104514.033000", "104514.035000", "104514.038000", "104519.021000", "104519.024000", "104519.027000", "104519.030000", "104519.033000", "104519.035000", "104519.038000", "104524.021000", "104524.024000", "104524.027000", "104524.030000", "104524.033000", "104524.035000", "104524.038000", "104524.041000", "104529.021000", "104529.024000", "104529.027000", "104529.030000", "104529.033000", "104529.035000", "104529.038000", "104534.021000", "104534.024000", "104534.027000", "104534.030000", "104534.033000", "104534.036000", "104539.021000", "104539.024000", "104539.027000", "104539.030000", "104539.033000", "104544.020000", "104544.023000", "104544.026000", "104544.029000", "104544.032000", "104549.021000", "104549.024000", "104549.027000", "104549.030000", "104549.033000", "104554.021000", "104554.024000", "104554.027000", "104554.030000", "104554.033000", "104559.021000", "104559.024000", "104559.027000", "104559.030000", "104559.033000", "104604.021000", "104604.024000", "104604.027000", "104604.030000", "104604.033000", "104609.021000", "104609.024000", "104609.027000", "104609.030000", "104609.033000", "104614.021000", "104614.024000", "104614.027000", "104614.030000", "104614.033000", "104619.020000", "104619.023000", "104619.026000", "104619.029000", "104619.032000", "104624.021000", "104624.024000", "104624.027000", "104624.030000", "104624.033000", "104629.021000", "104629.024000", "104629.027000", "104629.030000", "104629.033000", "104634.021000", "104634.024000", "104634.027000", "104634.030000", "104634.033000", "104639.021000", "104639.024000", "104639.027000", "104639.030000", "104639.033000", "104644.021000", "104644.024000", "104644.027000", "104644.030000", "104644.032000", "104648.389000", "104648.393000", "104648.398000", "104648.402000", "104648.407000"],
      "InstanceCreationTime": ["104324.021000", "104324.024000", "104324.027000", "104324.030000", "104324.033000", "104324.036000", "104324.039000", "104329.021000", "104329.024000", "104329.032000", "104329.035000", "104329.038000", "104329.041000", "104329.044000", "104334.021000", "104334.024000", "104334.027000", "104334.030000", "104334.032000", "104334.042000", "104334.045000", "104339.021000", "104339.024000", "104339.027000", "104339.030000", "104339.033000", "104339.035000", "104339.038000", "104344.021000", "104344.024000", "104344.027000", "104344.030000", "104344.036000", "104344.039000", "104344.042000", "104349.021000", "104349.024000", "104349.027000", "104349.030000", "104349.032000", "104349.035000", "104349.038000", "104354.021000", "104354.024000", "104354.027000", "104354.030000", "104354.032000", "104354.035000", "104354.038000", "104359.020000", "104359.026000", "104359.029000", "104359.032000", "104359.034000", "104359.037000", "104359.040000", "104404.021000", "104404.024000", "104404.027000", "104404.030000", "104404.032000", "104404.035000", "104404.038000", "104409.021000", "104409.024000", "104409.027000", "104409.030000", "104409.033000", "104409.035000", "104409.038000", "104414.021000", "104414.024000", "104414.027000", "104414.046000", "104414.049000", "104414.052000", "104414.055000", "104419.021000", "104419.024000", "104419.027000", "104419.030000", "104419.033000", "104419.036000", "104424.021000", "104424.024000", "104424.027000", "104424.030000", "104424.033000", "104424.035000", "104424.038000", "104424.041000", "104429.021000", "104429.024000", "104429.027000", "104429.030000", "104429.033000", "104429.035000", "104429.038000", "104434.020000", "104434.023000", "104434.026000", "104434.029000", "104434.031000", "104434.034000", "104434.037000", "104439.021000", "104439.024000", "104439.027000", "104439.030000", "104439.033000", "104439.036000", "104439.038000", "104444.021000", "104444.024000", "104444.027000", "104444.030000", "104444.033000", "104444.035000", "104444.038000", "104449.021000", "104449.024000", "104449.027000", "104449.030000", "104449.033000", "104449.036000", "104449.038000", "104454.021000", "104454.024000", "104454.027000", "104454.030000", "104454.033000", "104454.035000", "104454.038000", "104459.021000", "104459.024000", "104459.036000", "104459.039000", "104459.042000", "104459.045000", "104459.048000", "104504.021000", "104504.024000", "104504.027000", "104504.030000", "104504.032000", "104504.035000", "104504.038000", "104509.020000", "104509.023000", "104509.026000", "104509.029000", "104509.032000", "104509.034000", "104509.037000", "104514.021000", "104514.024000", "104514.027000", "104514.030000", "104514.033000", "104514.035000", "104514.038000", "104519.021000", "104519.024000", "104519.027000", "104519.030000", "104519.033000", "104519.035000", "104519.038000", "104524.021000", "104524.024000", "104524.027000", "104524.030000", "104524.033000", "104524.035000", "104524.038000", "104524.041000", "104529.021000", "104529.024000", "104529.027000", "104529.030000", "104529.033000", "104529.035000", "104529.038000", "104534.021000", "104534.024000", "104534.027000", "104534.030000", "104534.033000", "104534.036000", "104539.021000", "104539.024000", "104539.027000", "104539.030000", "104539.033000", "104544.020000", "104544.023000", "104544.026000", "104544.029000", "104544.032000", "104549.021000", "104549.024000", "104549.027000", "104549.030000", "104549.033000", "104554.021000", "104554.024000", "104554.027000", "104554.030000", "104554.033000", "104559.021000", "104559.024000", "104559.027000", "104559.030000", "104559.033000", "104604.021000", "104604.024000", "104604.027000", "104604.030000", "104604.033000", "104609.021000", "104609.024000", "104609.027000", "104609.030000", "104609.033000", "104614.021000", "104614.024000", "104614.027000", "104614.030000", "104614.033000", "104619.020000", "104619.023000", "104619.026000", "104619.029000", "104619.032000", "104624.021000", "104624.024000", "104624.027000", "104624.030000", "104624.033000", "104629.021000", "104629.024000", "104629.027000", "104629.030000", "104629.033000", "104634.021000", "104634.024000", "104634.027000", "104634.030000", "104634.033000", "104639.021000", "104639.024000", "104639.027000", "104639.030000", "104639.033000", "104644.021000", "104644.024000", "104644.027000", "104644.030000", "104644.032000", "104648.389000", "104648.393000", "104648.398000", "104648.402000", "104648.407000"],
      "InstanceNumber": [1, 2, 3, 4, 5, 6, 7, 8, 9, 10, 11, 12, 13, 14, 15, 16, 17, 18, 19, 20, 21, 22, 23, 24, 25, 26, 27, 28, 29, 30, 31, 32, 33, 34, 35, 36, 37, 38, 39, 40, 41, 42, 43, 44, 45, 46, 47, 48, 49, 50, 51, 52, 53, 54, 55, 56, 57, 58, 59, 60, 61, 62, 63, 64, 65, 66, 67, 68, 69, 70, 71, 72, 73, 74, 75, 76, 77, 78, 79, 80, 81, 82, 83, 84, 85, 86, 87, 88, 89, 90, 91, 92, 93, 94, 95, 96, 97, 98, 99, 100, 101, 102, 103, 104, 105, 106, 107, 108, 109, 110, 111, 112, 113, 114, 115, 116, 117, 118, 119, 120, 121, 122, 123, 124, 125, 126, 127, 128, 129, 130, 131, 132, 133, 134, 135, 136, 137, 138, 139, 140, 141, 142, 143, 144, 145, 146, 147, 148, 149, 150, 151, 152, 153, 154, 155, 156, 157, 158, 159, 160, 161, 162, 163, 164, 165, 166, 167, 168, 169, 170, 171, 172, 173, 174, 175, 176, 177, 178, 179, 180, 181, 182, 183, 184, 185, 186, 187, 188, 189, 190, 191, 192, 193, 194, 195, 196, 197, 198, 199, 200, 201, 202, 203, 204, 205, 206, 207, 208, 209, 210, 211, 212, 213, 214, 215, 216, 217, 218, 219, 220, 221, 222, 223, 224, 225, 226, 227, 228, 229, 230, 231, 232, 233, 234, 235, 236, 237, 238, 239, 240, 241, 242, 243, 244, 245, 246, 247, 248, 249, 250, 251, 252, 253, 254, 255, 256, 257, 258, 259, 260, 261, 262, 263, 264],
      "LargestImagePixelValue": [41003, 40308, 39061, 38692, 38358, 38555, 38787, 38235, 38361, 37578, 38861, 37778, 38149, 38273, 38020, 38603, 38390, 38253, 37661, 37747, 37655, 37222, 37646, 37285, 37328, 37990, 37332, 37610, 37664, 37632, 37349, 37446, 37448, 38066, 38073, 37527, 38214, 37831, 37697, 38423, 37863, 37601, 38263, 38123, 37891, 37350, 37793, 37622, 37178, 38047, 37801, 37622, 37685, 38321, 38184, 38056, 38529, 38097, 37744, 38301, 37692, 37371, 38611, 37653, 37777, 37826, 38535, 38099, 37819, 38094, 38422, 37500, 38086, 37668, 38109, 38681, 38168, 38079, 38447, 38549, 38571, 38745, 38453, 38162, 38061, 38218, 37996, 38247, 38449, 37743, 37753, 38150, 38064, 37853, 38527, 38166, 37774, 38172, 38029, 38197, 37737, 37942, 38144, 37985, 37664, 38295, 38159, 38010, 38283, 37558, 37694, 38113, 37859, 37499, 38043, 38011, 37959, 38654, 38204, 38038, 38077, 38937, 38444, 38227, 38741, 38494, 38151, 38500, 38111, 37986, 38043, 38380, 38035, 38046, 38094, 38143, 37877, 39094, 38714, 38164, 38571, 38694, 38917, 38581, 38373, 38554, 38437, 38041, 38338, 38373, 38197, 38233, 38754, 38957, 38536, 38708, 38684, 38428, 39073, 38136, 37899, 38823, 38276, 38572, 38998, 39076, 38367, 39022, 38551, 38399, 38921, 38367, 38133, 39026, 38711, 38422, 39338, 39063, 38719, 39039, 38815, 38498, 38875, 38608, 38193, 38765, 39052, 39032, 38702, 39083, 39069, 38617, 39012, 38818, 38123, 38815, 38825, 38920, 38674, 39360, 38899, 38945, 38937, 39113, 38374, 39335, 39054, 39198, 39423, 39235, 39194, 39492, 39321, 38868, 38876, 39379, 39137, 39050, 39058, 39076, 38768, 39475, 39005, 38829, 39323, 38883, 38433, 39167, 38510, 38468, 39172, 38820, 38971, 38874, 39227, 39236, 39527, 39266, 39308, 39440, 39087, 38579, 39242, 38981, 38815, 39301, 39188, 38836, 39463, 39192, 39135, 39322, 38913, 39798, 39499, 39400, 39428, 39388, 39287, 39949, 39410, 39328, 39532, 39205],
      "WindowCenter": [10274.0, 10232.0, 10204.0, 10190.0, 10187.0, 10180.0, 10189.0, 10185.0, 10192.0, 10184.0, 10193.0, 10189.0, 10193.0, 10191.0, 10193.0, 10205.0, 10214.0, 10224.0, 10216.0, 10212.0, 10207.0, 10202.0, 10207.0, 10206.0, 10208.0, 10218.0, 10215.0, 10220.0, 10226.0, 10228.0, 10226.0, 10216.0, 10209.0, 10205.0, 10209.0, 10206.0, 10217.0, 10219.0, 10218.0, 10215.0, 10203.0, 10192.0, 10198.0, 10206.0, 10203.0, 10205.0, 10204.0, 10203.0, 10196.0, 10202.0, 10204.0, 10205.0, 10199.0, 10211.0, 10197.0, 10195.0, 10193.0, 10195.0, 10197.0, 10200.0, 10195.0, 10192.0, 10203.0, 10192.0, 10184.0, 10182.0, 10184.0, 10183.0, 10182.0, 10187.0, 10191.0, 10191.0, 10203.0, 10204.0, 10203.0, 10199.0, 10188.0, 10180.0, 10183.0, 10190.0, 10196.0, 10201.0, 10199.0, 10200.0, 10201.0, 10203.0, 10204.0, 10215.0, 10211.0, 10206.0, 10198.0, 10200.0, 10202.0, 10201.0, 10207.0, 10204.0, 10205.0, 10210.0, 10212.0, 10215.0, 10219.0, 10218.0, 10210.0, 10212.0, 10199.0, 10212.0, 10211.0, 10219.0, 10223.0, 10214.0, 10211.0, 10211.0, 10214.0, 10207.0, 10209.0, 10204.0, 10201.0, 10198.0, 10186.0, 10185.0, 10180.0, 10190.0, 10185.0, 10189.0, 10192.0, 10192.0, 10190.0, 10194.0, 10194.0, 10197.0, 10196.0, 10205.0, 10202.0, 10197.0, 10193.0, 10195.0, 10182.0, 10188.0, 10179.0, 10185.0, 10190.0, 10186.0, 10189.0, 10195.0, 10194.0, 10200.0, 10199.0, 10196.0, 10194.0, 10191.0, 10181.0, 10180.0, 10181.0, 10188.0, 10189.0, 10189.0, 10197.0, 10199.0, 10208.0, 10194.0, 10189.0, 10196.0, 10200.0, 10206.0, 10213.0, 10225.0, 10223.0, 10227.0, 10217.0, 10217.0, 10212.0, 10207.0, 10197.0, 10202.0, 10197.0, 10190.0, 10200.0, 10203.0, 10199.0, 10204.0, 10205.0, 10208.0, 10208.0, 10214.0, 10206.0, 10200.0, 10197.0, 10196.0, 10192.0, 10195.0, 10205.0, 10212.0, 10217.0, 10212.0, 10202.0, 10199.0, 10198.0, 10203.0, 10199.0, 10203.0, 10209.0, 10205.0, 10202.0, 10202.0, 10193.0, 10200.0, 10195.0, 10197.0, 10200.0, 10194.0, 10196.0, 10200.0, 10202.0, 10200.0, 10199.0, 10205.0, 10202.0, 10203.0, 10207.0, 10215.0, 10207.0, 10209.0, 10214.0, 10213.0, 10221.0, 10217.0, 10214.0, 10211.0, 10205.0, 10199.0, 10199.0, 10196.0, 10194.0, 10193.0, 10200.0, 10199.0, 10204.0, 10207.0, 10212.0, 10207.0, 10204.0, 10202.0, 10199.0, 10196.0, 10198.0, 10201.0, 10198.0, 10198.0, 10201.0, 10195.0, 10189.0, 10191.0, 10181.0, 10183.0, 10176.0, 10171.0, 10174.0, 10181.0, 10186.0, 10194.0, 10190.0, 10192.0, 10196.0, 10199.0],
      "WindowWidth": [22279.0, 22144.0, 22058.0, 22013.0, 21995.0, 21975.0, 21991.0, 21983.0, 21996.0, 21981.0, 21996.0, 21991.0, 21997.0, 21993.0, 21996.0, 22023.0, 22049.0, 22071.0, 22057.0, 22048.0, 22036.0, 22027.0, 22034.0, 22034.0, 22040.0, 22062.0, 22058.0, 22069.0, 22081.0, 22086.0, 22081.0, 22060.0, 22044.0, 22032.0, 22038.0, 22034.0, 22060.0, 22064.0, 22062.0, 22051.0, 22024.0, 22001.0, 22008.0, 22028.0, 22027.0, 22030.0, 22029.0, 22028.0, 22013.0, 22022.0, 22027.0, 22030.0, 22018.0, 22039.0, 22010.0, 22006.0, 22000.0, 22006.0, 22010.0, 22016.0, 22006.0, 22000.0, 22019.0, 21998.0, 21982.0, 21976.0, 21976.0, 21974.0, 21972.0, 21982.0, 21992.0, 21996.0, 22022.0, 22027.0, 22023.0, 22013.0, 21989.0, 21969.0, 21974.0, 21990.0, 22000.0, 22013.0, 22013.0, 22015.0, 22020.0, 22025.0, 22026.0, 22048.0, 22043.0, 22032.0, 22013.0, 22016.0, 22021.0, 22017.0, 22032.0, 22029.0, 22032.0, 22043.0, 22046.0, 22053.0, 22062.0, 22060.0, 22042.0, 22043.0, 22018.0, 22041.0, 22042.0, 22062.0, 22072.0, 22053.0, 22043.0, 22044.0, 22051.0, 22036.0, 22038.0, 22027.0, 22016.0, 22007.0, 21982.0, 21978.0, 21967.0, 21987.0, 21978.0, 21988.0, 21993.0, 21994.0, 21991.0, 22000.0, 22001.0, 22008.0, 22008.0, 22026.0, 22020.0, 22010.0, 22000.0, 21999.0, 21973.0, 21980.0, 21964.0, 21979.0, 21987.0, 21979.0, 21985.0, 21999.0, 22001.0, 22014.0, 22012.0, 22006.0, 22002.0, 21992.0, 21973.0, 21968.0, 21967.0, 21982.0, 21986.0, 21985.0, 22004.0, 22012.0, 22029.0, 22002.0, 21991.0, 22003.0, 22013.0, 22025.0, 22045.0, 22070.0, 22069.0, 22077.0, 22057.0, 22054.0, 22042.0, 22029.0, 22009.0, 22015.0, 22004.0, 21990.0, 22008.0, 22016.0, 22010.0, 22020.0, 22026.0, 22031.0, 22034.0, 22047.0, 22031.0, 22014.0, 22003.0, 21998.0, 21992.0, 21998.0, 22021.0, 22038.0, 22051.0, 22041.0, 22017.0, 22009.0, 22008.0, 22017.0, 22008.0, 22017.0, 22031.0, 22023.0, 22015.0, 22014.0, 21998.0, 22009.0, 22000.0, 22004.0, 22009.0, 21997.0, 22000.0, 22010.0, 22016.0, 22014.0, 22011.0, 22024.0, 22018.0, 22019.0, 22032.0, 22049.0, 22034.0, 22037.0, 22048.0, 22045.0, 22059.0, 22054.0, 22046.0, 22039.0, 22028.0, 22013.0, 22011.0, 22005.0, 22000.0, 21998.0, 22011.0, 22009.0, 22019.0, 22027.0, 22038.0, 22030.0, 22021.0, 22016.0, 22007.0, 22004.0, 22008.0, 22014.0, 22009.0, 22008.0, 22014.0, 22000.0, 21987.0, 21989.0, 21967.0, 21968.0, 21951.0, 21942.0, 21948.0, 21962.0, 21974.0, 21992.0, 21986.0, 21993.0, 21999.0, 22006.0]
    },
    "slices": {}
  }
}