{
  "AcquisitionMatrixPE": 104,
  "AcquisitionNumber": 1,
  "AcquisitionTime": "10:37:33.490000",
  "BandwidthPerPixelPhaseEncode": 16.578,
  "BaseResolution": 104,
  "BodyPartExamined": "BRAIN",
  "ConsistencyInfo": "N4_VE11C_LATEST_20160120",
  "ConversionSoftware": "dcm2niix",
  "ConversionSoftwareVersion": "v1.0.20190410  GCC6.3.0",
  "DerivedVendorReportedEchoSpacing": 0.000580009,
  "DeviceSerialNumber": "166018",
  "DwellTime": 2.1e-06,
  "EchoTime": 0.037,
  "EchoTrainLength": 104,
  "EffectiveEchoSpacing": 0.000580009,
  "FlipAngle": 68,
  "ImageComments": "Unaliased_MB6_PE3_LB",
  "ImageOrientationPatientDICOM": [0.995442, 0.0831316, 0.0467403, -0.0820152, 0.996309, -0.0253203],
  "ImageType": [
    "ORIGINAL",
    "PRIMARY",
    "M",
    "MB",
    "ND",
    "MOSAIC"
],
  "ImagingFrequency": 123.191,
  "InPlanePhaseEncodingDirectionDICOM": "COL",
  "InstitutionAddress": "Washington_Place_6_NYC_NYC_US_10003",
  "InstitutionName": "NYU_Center_for_Brain_Imaging",
  "InstitutionalDepartmentName": "Department",
  "MRAcquisitionType": "2D",
  "MagneticFieldStrength": 3,
  "Manufacturer": "Siemens",
  "ManufacturersModelName": "Prisma",
  "Modality": "MR",
  "MultibandAccelerationFactor": 6,
  "PartialFourier": 1,
  "PatientPosition": "HFS",
  "PercentPhaseFOV": 100,
  "PhaseEncodingDirection": "j",
  "PhaseEncodingSteps": 104,
  "PhaseResolution": 1,
  "PixelBandwidth": 2290,
  "ProcedureStepDescription": "Investigators_Winawer",
  "ProtocolName": "task-sfprescaled_cmrr_mbepi_s6_2mm_66sl_PA_TR1.0",
  "PulseSequenceDetails": "%CustomerSeq%_cmrr_mbep2d_bold",
  "ReceiveCoilActiveElements": "HC1-7",
  "ReceiveCoilName": "HeadNeck_64",
  "ReconMatrixPE": 104,
  "RepetitionTime": 1,
  "SAR": 0.0685127,
  "ScanOptions": "FS",
  "ScanningSequence": "EP",
  "SequenceName": "epfid2d1_104",
  "SequenceVariant": "SK_SS",
  "SeriesDescription": "task-sfprescaled_cmrr_mbepi_s6_2mm_66sl_PA_TR1.0",
  "SeriesNumber": 18,
  "ShimSetting": [277, -12593, -8545, 325, -6, -111, -35, 26],
  "SliceThickness": 2,
  "SliceTiming": [0, 0.535, 0.09, 0.6225, 0.1775, 0.7125, 0.2675, 0.8025, 0.3575, 0.89, 0.445, 0, 0.535, 0.09, 0.6225, 0.1775, 0.7125, 0.2675, 0.8025, 0.3575, 0.89, 0.445, 0, 0.535, 0.09, 0.6225, 0.1775, 0.7125, 0.2675, 0.8025, 0.3575, 0.89, 0.445, 0, 0.535, 0.09, 0.6225, 0.1775, 0.7125, 0.2675, 0.8025, 0.3575, 0.89, 0.445, 0, 0.535, 0.09, 0.6225, 0.1775, 0.7125, 0.2675, 0.8025, 0.3575, 0.89, 0.445, 0, 0.535, 0.09, 0.6225, 0.1775, 0.7125, 0.2675, 0.8025, 0.3575, 0.89, 0.445],
  "SoftwareVersions": "syngo_MR_E11",
  "SpacingBetweenSlices": 2,
  "StationName": "AWP166018",
  "TaskName": "sfprescaled",
  "TotalReadoutTime": 0.0597409,
  "TxRefAmp": 203.092,
  "WipMemBlock": "7de05b99-da33-4cf8-aed5-c1e525a8e42a||Sequence: R016 ve11c/master r/8780670; Nov 27 2017 15:05:12 by eja",
  "dcmmeta_affine": [
    [-1.990883708000183, -0.16403035819530487, 0.09734547138214111, 113.74717712402344],
    [-0.16626325249671936, 1.9926187992095947, -0.04274289309978485, -73.30086517333984],
    [0.09348063915967941, 0.05064055323600769, 1.997172236442566, -41.04076385498047],
    [0.0, 0.0, 0.0, 1.0]
],
  "dcmmeta_reorient_transform": [
    [0.0, -1.0, 0.0, 103.0],
    [1.0, 0.0, 0.0, 0.0],
    [0.0, 0.0, 1.0, 0.0],
    [0.0, 0.0, 0.0, 1.0]
],
  "dcmmeta_shape": [104, 104, 66, 264],
  "dcmmeta_slice_dim": 2,
  "dcmmeta_version": 0.6,
  "global": {
    "const": {
      "AccessionNumber": "jv3y3i0c",
  "NumberOfVolumes": 264,
      "AcquisitionMatrix": [104, 0, 0, 104],
      "AngioFlag": "N",
      "BitsAllocated": 16,
      "BitsStored": 16,
      "BodyPartExamined": "BRAIN",
      "Columns": 936,
      "EchoNumbers": 1,
      "EchoTime": 37.0,
      "EchoTrainLength": 104,
      "FlipAngle": 68.0,
      "HighBit": 15,
      "ImageOrientationPatient": [0.99544184899904, 0.08313162831178, 0.04674032130395, -0.0820151813389, 0.99630938650778, -0.0253202761922],
      "ImagePositionPatient": [-856.82303483909, -1030.0337956389, -53.646265343491],
      "ImageType": [
        "ORIGINAL",
        "PRIMARY",
        "M",
        "MB",
        "ND",
        "MOSAIC"
],
      "ImagedNucleus": "1H",
      "ImagingFrequency": 123.191083,
      "InPlanePhaseEncodingDirection": "COL",
      "MRAcquisitionType": "2D",
      "MagneticFieldStrength": 3.0,
      "Manufacturer": "SIEMENS",
      "ManufacturerModelName": "Prisma",
      "Modality": "MR",
      "NumberOfAverages": 1.0,
      "NumberOfPhaseEncodingSteps": 104,
      "PercentPhaseFieldOfView": 100.0,
      "PercentSampling": 100.0,
      "PerformedProcedureStepStartTime": "100021.887000",
      "PhotometricInterpretation": "MONOCHROME2",
      "PixelBandwidth": 2290.0,
      "PixelRepresentation": 0,
      "PixelSpacing": [2.0, 2.0],
      "ProtocolName": "task-sfprescaled_cmrr_mbepi_s6_2mm_66sl_PA_TR1.0",
      "RepetitionTime": 1000.0,
      "Rows": 936,
      "SAR": 0.06851266208846,
      "SamplesPerPixel": 1,
      "ScanOptions": "FS",
      "ScanningSequence": "EP",
      "SequenceName": "epfid2d1_104",
      "SequenceVariant": [
        "SK",
        "SS"
],
      "SeriesDescription": "task-sfprescaled_cmrr_mbepi_s6_2mm_66sl_PA_TR1.0",
      "SeriesNumber": 18,
      "SeriesTime": "103824.219000",
      "SliceLocation": -33.879805977721,
      "SliceThickness": 2.0,
      "SmallestImagePixelValue": 0,
      "SoftwareVersions": "syngo MR E11",
      "SpacingBetweenSlices": 2.0000000256817,
      "SpecificCharacterSet": "ISO_IR 100",
      "StudyID": "1",
      "StudyTime": "100021.836000",
      "TransmitCoilName": "Body",
      "VariableFlipAngleFlag": "N",
      "WindowCenterWidthExplanation": "Algo1",
      "dBdt": 0.0},
    "slices": {}
  },
  "time": {
    "samples": {
      "AcquisitionNumber": [1, 2, 3, 4, 5, 6, 7, 8, 9, 10, 11, 12, 13, 14, 15, 16, 17, 18, 19, 20, 21, 22, 23, 24, 25, 26, 27, 28, 29, 30, 31, 32, 33, 34, 35, 36, 37, 38, 39, 40, 41, 42, 43, 44, 45, 46, 47, 48, 49, 50, 51, 52, 53, 54, 55, 56, 57, 58, 59, 60, 61, 62, 63, 64, 65, 66, 67, 68, 69, 70, 71, 72, 73, 74, 75, 76, 77, 78, 79, 80, 81, 82, 83, 84, 85, 86, 87, 88, 89, 90, 91, 92, 93, 94, 95, 96, 97, 98, 99, 100, 101, 102, 103, 104, 105, 106, 107, 108, 109, 110, 111, 112, 113, 114, 115, 116, 117, 118, 119, 120, 121, 122, 123, 124, 125, 126, 127, 128, 129, 130, 131, 132, 133, 134, 135, 136, 137, 138, 139, 140, 141, 142, 143, 144, 145, 146, 147, 148, 149, 150, 151, 152, 153, 154, 155, 156, 157, 158, 159, 160, 161, 162, 163, 164, 165, 166, 167, 168, 169, 170, 171, 172, 173, 174, 175, 176, 177, 178, 179, 180, 181, 182, 183, 184, 185, 186, 187, 188, 189, 190, 191, 192, 193, 194, 195, 196, 197, 198, 199, 200, 201, 202, 203, 204, 205, 206, 207, 208, 209, 210, 211, 212, 213, 214, 215, 216, 217, 218, 219, 220, 221, 222, 223, 224, 225, 226, 227, 228, 229, 230, 231, 232, 233, 234, 235, 236, 237, 238, 239, 240, 241, 242, 243, 244, 245, 246, 247, 248, 249, 250, 251, 252, 253, 254, 255, 256, 257, 258, 259, 260, 261, 262, 263, 264],
      "AcquisitionTime": ["103733.490000", "103734.490000", "103735.490000", "103736.490000", "103737.490000", "103738.490000", "103739.490000", "103740.490000", "103741.490000", "103742.490000", "103743.490000", "103744.490000", "103745.490000", "103746.490000", "103747.490000", "103748.490000", "103749.490000", "103750.490000", "103751.490000", "103752.490000", "103753.490000", "103754.490000", "103755.490000", "103756.490000", "103757.490000", "103758.490000", "103759.490000", "103800.490000", "103801.490000", "103802.490000", "103803.490000", "103804.490000", "103805.490000", "103806.490000", "103807.490000", "103808.490000", "103809.490000", "103810.490000", "103811.490000", "103812.490000", "103813.490000", "103814.490000", "103815.490000", "103816.490000", "103817.490000", "103818.490000", "103819.490000", "103820.490000", "103821.490000", "103822.490000", "103823.490000", "103824.490000", "103825.490000", "103826.490000", "103827.490000", "103828.490000", "103829.490000", "103830.490000", "103831.490000", "103832.490000", "103833.490000", "103834.490000", "103835.490000", "103836.490000", "103837.490000", "103838.490000", "103839.490000", "103840.490000", "103841.490000", "103842.490000", "103843.490000", "103844.490000", "103845.490000", "103846.490000", "103847.490000", "103848.490000", "103849.490000", "103850.490000", "103851.490000", "103852.490000", "103853.490000", "103854.490000", "103855.490000", "103856.490000", "103857.490000", "103858.490000", "103859.490000", "103900.490000", "103901.490000", "103902.490000", "103903.490000", "103904.490000", "103905.490000", "103906.490000", "103907.490000", "103908.490000", "103909.490000", "103910.490000", "103911.490000", "103912.490000", "103913.490000", "103914.490000", "103915.490000", "103916.490000", "103917.490000", "103918.490000", "103919.490000", "103920.490000", "103921.490000", "103922.490000", "103923.490000", "103924.490000", "103925.490000", "103926.490000", "103927.490000", "103928.490000", "103929.490000", "103930.490000", "103931.490000", "103932.490000", "103933.490000", "103934.490000", "103935.490000", "103936.490000", "103937.490000", "103938.490000", "103939.490000", "103940.490000", "103941.490000", "103942.490000", "103943.490000", "103944.490000", "103945.490000", "103946.490000", "103947.490000", "103948.490000", "103949.490000", "103950.490000", "103951.490000", "103952.490000", "103953.490000", "103954.490000", "103955.490000", "103956.490000", "103957.490000", "103958.490000", "103959.490000", "104000.490000", "104001.490000", "104002.490000", "104003.490000", "104004.490000", "104005.490000", "104006.490000", "104007.490000", "104008.490000", "104009.490000", "104010.490000", "104011.490000", "104012.490000", "104013.490000", "104014.490000", "104015.490000", "104016.490000", "104017.490000", "104018.490000", "104019.490000", "104020.490000", "104021.490000", "104022.490000", "104023.490000", "104024.490000", "104025.490000", "104026.490000", "104027.490000", "104028.490000", "104029.490000", "104030.490000", "104031.490000", "104032.490000", "104033.490000", "104034.490000", "104035.490000", "104036.490000", "104037.490000", "104038.490000", "104039.490000", "104040.490000", "104041.490000", "104042.490000", "104043.490000", "104044.490000", "104045.490000", "104046.490000", "104047.490000", "104048.490000", "104049.490000", "104050.490000", "104051.490000", "104052.490000", "104053.490000", "104054.490000", "104055.490000", "104056.490000", "104057.490000", "104058.490000", "104059.490000", "104100.490000", "104101.490000", "104102.490000", "104103.490000", "104104.490000", "104105.490000", "104106.490000", "104107.490000", "104108.490000", "104109.490000", "104110.490000", "104111.490000", "104112.490000", "104113.490000", "104114.490000", "104115.490000", "104116.490000", "104117.490000", "104118.490000", "104119.490000", "104120.490000", "104121.490000", "104122.490000", "104123.490000", "104124.490000", "104125.490000", "104126.490000", "104127.490000", "104128.490000", "104129.490000", "104130.490000", "104131.490000", "104132.490000", "104133.490000", "104134.490000", "104135.490000", "104136.490000", "104137.490000", "104138.490000", "104139.490000", "104140.490000", "104141.490000", "104142.490000", "104143.490000", "104144.490000", "104145.490000", "104146.490000", "104147.490000", "104148.490000", "104149.490000", "104150.490000", "104151.490000", "104152.490000", "104153.490000", "104154.490000", "104155.490000", "104156.490000"],
      "ContentTime": ["103824.222000", "103829.189000", "103829.202000", "103829.206000", "103829.208000", "103829.217000", "103829.220000", "103829.223000", "103834.188000", "103834.191000", "103834.195000", "103834.207000", "103834.210000", "103834.212000", "103834.238000", "103839.188000", "103839.191000", "103839.194000", "103839.196000", "103839.199000", "103839.202000", "103839.205000", "103839.208000", "103844.188000", "103844.197000", "103844.200000", "103844.203000", "103844.206000", "103844.215000", "103844.218000", "103849.189000", "103849.192000", "103849.195000", "103849.197000", "103849.200000", "103849.203000", "103849.206000", "103854.188000", "103854.264000", "103854.267000", "103854.269000", "103854.272000", "103854.275000", "103854.278000", "103859.188000", "103859.191000", "103859.194000", "103859.196000", "103859.199000", "103859.202000", "103859.205000", "103904.189000", "103904.192000", "103904.195000", "103904.198000", "103904.210000", "103904.213000", "103904.216000", "103909.188000", "103909.191000", "103909.194000", "103909.197000", "103909.199000", "103909.202000", "103909.205000", "103914.188000", "103914.191000", "103914.197000", "103914.200000", "103914.203000", "103914.205000", "103914.208000", "103919.188000", "103919.191000", "103919.194000", "103919.197000", "103919.199000", "103919.202000", "103919.205000", "103924.189000", "103924.192000", "103924.199000", "103924.201000", "103924.204000", "103924.207000", "103924.210000", "103929.188000", "103929.191000", "103929.194000", "103929.197000", "103929.200000", "103929.202000", "103929.205000", "103934.188000", "103934.191000", "103934.194000", "103934.197000", "103934.199000", "103934.202000", "103934.205000", "103939.189000", "103939.192000", "103939.195000", "103939.198000", "103939.200000", "103939.203000", "103939.206000", "103944.188000", "103944.191000", "103944.194000", "103944.197000", "103944.200000", "103944.203000", "103944.205000", "103949.188000", "103949.191000", "103949.194000", "103949.197000", "103949.200000", "103949.202000", "103949.205000", "103954.188000", "103954.191000", "103954.194000", "103954.196000", "103954.199000", "103954.202000", "103954.205000", "103954.208000", "103959.189000", "103959.192000", "103959.195000", "103959.198000", "103959.200000", "103959.203000", "103959.206000", "104004.188000", "104004.191000", "104004.194000", "104004.197000", "104004.199000", "104004.202000", "104004.205000", "104009.188000", "104009.191000", "104009.194000", "104009.196000", "104009.199000", "104009.202000", "104009.205000", "104014.189000", "104014.192000", "104014.195000", "104014.197000", "104014.200000", "104014.203000", "104014.206000", "104019.188000", "104019.191000", "104019.194000", "104019.210000", "104019.213000", "104019.216000", "104019.219000", "104024.188000", "104024.191000", "104024.194000", "104024.197000", "104024.199000", "104029.188000", "104029.191000", "104029.194000", "104029.197000", "104029.199000", "104034.189000", "104034.192000", "104034.195000", "104034.198000", "104034.200000", "104039.188000", "104039.191000", "104039.194000", "104039.196000", "104039.199000", "104044.188000", "104044.191000", "104044.194000", "104044.197000", "104044.199000", "104049.189000", "104049.192000", "104049.195000", "104049.198000", "104049.201000", "104054.188000", "104054.191000", "104054.194000", "104054.197000", "104054.200000", "104059.188000", "104059.191000", "104059.194000", "104059.197000", "104059.199000", "104104.188000", "104104.229000", "104104.232000", "104104.235000", "104104.238000", "104109.189000", "104109.192000", "104109.195000", "104109.198000", "104109.200000", "104114.188000", "104114.191000", "104114.194000", "104114.197000", "104114.199000", "104119.188000", "104119.191000", "104119.194000", "104119.197000", "104119.199000", "104124.189000", "104124.192000", "104124.195000", "104124.198000", "104124.201000", "104129.188000", "104129.191000", "104129.194000", "104129.197000", "104129.199000", "104134.188000", "104134.191000", "104134.194000", "104134.197000", "104134.199000", "104139.188000", "104139.191000", "104139.194000", "104139.197000", "104139.199000", "104144.189000", "104144.192000", "104144.195000", "104144.198000", "104144.200000", "104149.188000", "104149.191000", "104149.194000", "104149.197000", "104149.199000", "104154.188000", "104154.191000", "104154.194000", "104154.197000", "104154.199000", "104158.554000", "104158.557000", "104158.560000", "104158.563000", "104158.566000"],
      "InstanceCreationTime": ["103824.222000", "103829.189000", "103829.202000", "103829.206000", "103829.208000", "103829.217000", "103829.220000", "103829.223000", "103834.188000", "103834.191000", "103834.195000", "103834.207000", "103834.210000", "103834.212000", "103834.238000", "103839.188000", "103839.191000", "103839.194000", "103839.196000", "103839.199000", "103839.202000", "103839.205000", "103839.208000", "103844.188000", "103844.197000", "103844.200000", "103844.203000", "103844.206000", "103844.215000", "103844.218000", "103849.189000", "103849.192000", "103849.195000", "103849.197000", "103849.200000", "103849.203000", "103849.206000", "103854.188000", "103854.264000", "103854.267000", "103854.269000", "103854.272000", "103854.275000", "103854.278000", "103859.188000", "103859.191000", "103859.194000", "103859.196000", "103859.199000", "103859.202000", "103859.205000", "103904.189000", "103904.192000", "103904.195000", "103904.198000", "103904.210000", "103904.213000", "103904.216000", "103909.188000", "103909.191000", "103909.194000", "103909.197000", "103909.199000", "103909.202000", "103909.205000", "103914.188000", "103914.191000", "103914.197000", "103914.200000", "103914.203000", "103914.205000", "103914.208000", "103919.188000", "103919.191000", "103919.194000", "103919.197000", "103919.199000", "103919.202000", "103919.205000", "103924.189000", "103924.192000", "103924.199000", "103924.201000", "103924.204000", "103924.207000", "103924.210000", "103929.188000", "103929.191000", "103929.194000", "103929.197000", "103929.200000", "103929.202000", "103929.205000", "103934.188000", "103934.191000", "103934.194000", "103934.197000", "103934.199000", "103934.202000", "103934.205000", "103939.189000", "103939.192000", "103939.195000", "103939.198000", "103939.200000", "103939.203000", "103939.206000", "103944.188000", "103944.191000", "103944.194000", "103944.197000", "103944.200000", "103944.203000", "103944.205000", "103949.188000", "103949.191000", "103949.194000", "103949.197000", "103949.200000", "103949.202000", "103949.205000", "103954.188000", "103954.191000", "103954.194000", "103954.196000", "103954.199000", "103954.202000", "103954.205000", "103954.208000", "103959.189000", "103959.192000", "103959.195000", "103959.198000", "103959.200000", "103959.203000", "103959.206000", "104004.188000", "104004.191000", "104004.194000", "104004.197000", "104004.199000", "104004.202000", "104004.205000", "104009.188000", "104009.191000", "104009.194000", "104009.196000", "104009.199000", "104009.202000", "104009.205000", "104014.189000", "104014.192000", "104014.195000", "104014.197000", "104014.200000", "104014.203000", "104014.206000", "104019.188000", "104019.191000", "104019.194000", "104019.210000", "104019.213000", "104019.216000", "104019.219000", "104024.188000", "104024.191000", "104024.194000", "104024.197000", "104024.199000", "104029.188000", "104029.191000", "104029.194000", "104029.197000", "104029.199000", "104034.189000", "104034.192000", "104034.195000", "104034.198000", "104034.200000", "104039.188000", "104039.191000", "104039.194000", "104039.196000", "104039.199000", "104044.188000", "104044.191000", "104044.194000", "104044.197000", "104044.199000", "104049.189000", "104049.192000", "104049.195000", "104049.198000", "104049.201000", "104054.188000", "104054.191000", "104054.194000", "104054.197000", "104054.200000", "104059.188000", "104059.191000", "104059.194000", "104059.197000", "104059.199000", "104104.188000", "104104.229000", "104104.232000", "104104.235000", "104104.238000", "104109.189000", "104109.192000", "104109.195000", "104109.198000", "104109.200000", "104114.188000", "104114.191000", "104114.194000", "104114.197000", "104114.199000", "104119.188000", "104119.191000", "104119.194000", "104119.197000", "104119.199000", "104124.189000", "104124.192000", "104124.195000", "104124.198000", "104124.201000", "104129.188000", "104129.191000", "104129.194000", "104129.197000", "104129.199000", "104134.188000", "104134.191000", "104134.194000", "104134.197000", "104134.199000", "104139.188000", "104139.191000", "104139.194000", "104139.197000", "104139.199000", "104144.189000", "104144.192000", "104144.195000", "104144.198000", "104144.200000", "104149.188000", "104149.191000", "104149.194000", "104149.197000", "104149.199000", "104154.188000", "104154.191000", "104154.194000", "104154.197000", "104154.199000", "104158.554000", "104158.557000", "104158.560000", "104158.563000", "104158.566000"],
      "InstanceNumber": [1, 2, 3, 4, 5, 6, 7, 8, 9, 10, 11, 12, 13, 14, 15, 16, 17, 18, 19, 20, 21, 22, 23, 24, 25, 26, 27, 28, 29, 30, 31, 32, 33, 34, 35, 36, 37, 38, 39, 40, 41, 42, 43, 44, 45, 46, 47, 48, 49, 50, 51, 52, 53, 54, 55, 56, 57, 58, 59, 60, 61, 62, 63, 64, 65, 66, 67, 68, 69, 70, 71, 72, 73, 74, 75, 76, 77, 78, 79, 80, 81, 82, 83, 84, 85, 86, 87, 88, 89, 90, 91, 92, 93, 94, 95, 96, 97, 98, 99, 100, 101, 102, 103, 104, 105, 106, 107, 108, 109, 110, 111, 112, 113, 114, 115, 116, 117, 118, 119, 120, 121, 122, 123, 124, 125, 126, 127, 128, 129, 130, 131, 132, 133, 134, 135, 136, 137, 138, 139, 140, 141, 142, 143, 144, 145, 146, 147, 148, 149, 150, 151, 152, 153, 154, 155, 156, 157, 158, 159, 160, 161, 162, 163, 164, 165, 166, 167, 168, 169, 170, 171, 172, 173, 174, 175, 176, 177, 178, 179, 180, 181, 182, 183, 184, 185, 186, 187, 188, 189, 190, 191, 192, 193, 194, 195, 196, 197, 198, 199, 200, 201, 202, 203, 204, 205, 206, 207, 208, 209, 210, 211, 212, 213, 214, 215, 216, 217, 218, 219, 220, 221, 222, 223, 224, 225, 226, 227, 228, 229, 230, 231, 232, 233, 234, 235, 236, 237, 238, 239, 240, 241, 242, 243, 244, 245, 246, 247, 248, 249, 250, 251, 252, 253, 254, 255, 256, 257, 258, 259, 260, 261, 262, 263, 264],
      "LargestImagePixelValue": [42303, 40735, 40147, 39602, 39677, 39513, 39991, 39915, 39617, 39725, 39334, 38977, 39474, 39009, 38744, 38741, 39488, 39667, 39581, 38620, 39678, 39410, 39532, 39250, 39614, 39790, 39579, 40046, 39729, 39864, 39564, 39774, 39687, 39413, 39885, 39628, 39225, 39749, 39896, 39340, 39445, 39478, 39201, 39151, 39442, 39205, 39635, 39393, 39674, 39386, 39407, 39771, 39704, 39485, 39679, 39742, 39449, 39657, 40007, 39531, 39692, 39936, 39625, 40452, 39829, 39057, 39745, 39846, 40080, 39557, 39895, 39211, 39117, 39789, 39254, 39739, 39143, 39556, 39502, 38880, 39567, 39596, 39405, 38940, 39545, 39049, 39442, 39335, 39411, 39414, 39808, 39517, 39533, 39727, 39580, 39491, 39365, 39430, 39221, 39340, 39462, 39882, 39352, 39768, 39324, 39340, 39751, 39204, 39080, 39336, 39774, 39853, 39487, 40120, 39461, 39431, 39742, 39747, 39573, 40058, 40016, 39309, 40391, 39731, 39291, 39743, 39617, 38863, 39486, 39342, 39508, 39735, 39334, 39542, 39733, 39569, 39638, 39806, 39663, 39665, 39114, 39789, 39666, 39988, 40170, 39838, 39499, 39393, 39623, 39444, 39915, 39927, 39578, 39944, 39712, 39605, 39519, 39112, 39256, 39454, 39240, 39113, 39405, 40291, 39700, 39236, 39562, 39416, 39527, 39467, 39067, 38754, 39350, 39332, 38487, 38496, 38643, 38982, 38355, 39285, 39468, 38639, 39502, 39523, 39122, 39332, 39390, 39397, 39434, 39711, 39158, 39412, 39648, 39300, 39456, 39556, 39419, 39281, 39514, 39483, 39723, 39171, 39012, 39228, 38540, 38371, 38890, 38744, 38712, 38808, 39133, 39013, 38954, 38827, 38559, 39457, 38886, 38491, 39463, 38752, 39002, 38588, 38639, 39104, 38947, 38685, 38940, 39310, 39289, 39468, 39094, 38647, 38973, 38809, 38579, 39130, 39111, 39121, 39269, 39488, 39446, 39433, 39496, 39079, 39041, 39339, 39240, 39100, 39283, 39567, 39401, 39337, 38989, 39277, 39292, 38742, 39599, 39621, 39116, 39174, 39363, 39144, 38951, 39218],
      "WindowCenter": [10308.0, 10263.0, 10235.0, 10232.0, 10223.0, 10203.0, 10206.0, 10211.0, 10218.0, 10226.0, 10235.0, 10227.0, 10235.0, 10229.0, 10227.0, 10223.0, 10230.0, 10230.0, 10226.0, 10205.0, 10208.0, 10203.0, 10203.0, 10197.0, 10200.0, 10195.0, 10194.0, 10200.0, 10206.0, 10215.0, 10217.0, 10217.0, 10218.0, 10208.0, 10207.0, 10196.0, 10188.0, 10192.0, 10197.0, 10201.0, 10209.0, 10210.0, 10212.0, 10199.0, 10197.0, 10188.0, 10179.0, 10180.0, 10185.0, 10186.0, 10194.0, 10202.0, 10201.0, 10197.0, 10200.0, 10193.0, 10188.0, 10186.0, 10195.0, 10200.0, 10200.0, 10212.0, 10215.0, 10222.0, 10223.0, 10213.0, 10217.0, 10223.0, 10228.0, 10224.0, 10230.0, 10226.0, 10222.0, 10229.0, 10231.0, 10226.0, 10228.0, 10231.0, 10229.0, 10228.0, 10232.0, 10238.0, 10240.0, 10236.0, 10238.0, 10229.0, 10227.0, 10219.0, 10216.0, 10212.0, 10211.0, 10216.0, 10223.0, 10218.0, 10223.0, 10217.0, 10211.0, 10205.0, 10197.0, 10197.0, 10196.0, 10205.0, 10197.0, 10201.0, 10203.0, 10203.0, 10207.0, 10203.0, 10198.0, 10197.0, 10196.0, 10200.0, 10195.0, 10199.0, 10195.0, 10195.0, 10195.0, 10194.0, 10193.0, 10191.0, 10192.0, 10186.0, 10196.0, 10199.0, 10208.0, 10215.0, 10216.0, 10208.0, 10210.0, 10208.0, 10205.0, 10202.0, 10202.0, 10202.0, 10199.0, 10199.0, 10199.0, 10197.0, 10191.0, 10192.0, 10188.0, 10191.0, 10191.0, 10204.0, 10225.0, 10228.0, 10223.0, 10212.0, 10215.0, 10202.0, 10199.0, 10198.0, 10200.0, 10206.0, 10212.0, 10226.0, 10224.0, 10213.0, 10210.0, 10203.0, 10199.0, 10190.0, 10188.0, 10199.0, 10192.0, 10194.0, 10200.0, 10208.0, 10223.0, 10232.0, 10236.0, 10228.0, 10238.0, 10249.0, 10239.0, 10228.0, 10223.0, 10219.0, 10197.0, 10197.0, 10188.0, 10183.0, 10185.0, 10186.0, 10181.0, 10179.0, 10181.0, 10179.0, 10179.0, 10183.0, 10179.0, 10187.0, 10204.0, 10209.0, 10211.0, 10214.0, 10209.0, 10210.0, 10209.0, 10210.0, 10216.0, 10211.0, 10219.0, 10225.0, 10223.0, 10210.0, 10208.0, 10206.0, 10201.0, 10199.0, 10197.0, 10204.0, 10205.0, 10205.0, 10210.0, 10219.0, 10215.0, 10217.0, 10220.0, 10221.0, 10222.0, 10216.0, 10208.0, 10195.0, 10190.0, 10185.0, 10189.0, 10203.0, 10210.0, 10217.0, 10208.0, 10208.0, 10200.0, 10192.0, 10186.0, 10191.0, 10189.0, 10189.0, 10195.0, 10188.0, 10187.0, 10190.0, 10186.0, 10188.0, 10188.0, 10193.0, 10200.0, 10197.0, 10203.0, 10200.0, 10208.0, 10205.0, 10207.0, 10212.0, 10212.0, 10202.0, 10208.0, 10201.0, 10199.0, 10190.0, 10195.0, 10199.0, 10198.0, 10209.0],
      "WindowWidth": [22356.0, 22211.0, 22127.0, 22103.0, 22076.0, 22025.0, 22026.0, 22036.0, 22054.0, 22073.0, 22094.0, 22082.0, 22096.0, 22083.0, 22080.0, 22068.0, 22077.0, 22077.0, 22067.0, 22021.0, 22021.0, 22011.0, 22013.0, 21998.0, 22003.0, 21993.0, 21991.0, 22002.0, 22016.0, 22038.0, 22044.0, 22046.0, 22051.0, 22028.0, 22023.0, 21997.0, 21979.0, 21983.0, 21995.0, 22008.0, 22028.0, 22034.0, 22040.0, 22010.0, 22001.0, 21978.0, 21955.0, 21958.0, 21971.0, 21973.0, 21995.0, 22013.0, 22012.0, 22003.0, 22010.0, 21991.0, 21980.0, 21975.0, 21992.0, 22004.0, 22008.0, 22033.0, 22044.0, 22059.0, 22060.0, 22041.0, 22048.0, 22062.0, 22070.0, 22065.0, 22080.0, 22074.0, 22064.0, 22076.0, 22083.0, 22073.0, 22076.0, 22082.0, 22077.0, 22076.0, 22085.0, 22098.0, 22105.0, 22095.0, 22099.0, 22080.0, 22073.0, 22055.0, 22045.0, 22037.0, 22034.0, 22048.0, 22062.0, 22050.0, 22063.0, 22048.0, 22036.0, 22021.0, 22004.0, 22002.0, 21999.0, 22018.0, 22002.0, 22009.0, 22015.0, 22017.0, 22024.0, 22017.0, 22006.0, 22001.0, 22002.0, 22005.0, 21995.0, 22004.0, 21996.0, 21996.0, 21994.0, 21991.0, 21988.0, 21984.0, 21986.0, 21973.0, 21994.0, 22005.0, 22027.0, 22044.0, 22049.0, 22033.0, 22036.0, 22028.0, 22022.0, 22013.0, 22012.0, 22012.0, 22005.0, 22003.0, 22003.0, 21998.0, 21986.0, 21987.0, 21979.0, 21983.0, 21984.0, 22013.0, 22060.0, 22072.0, 22062.0, 22037.0, 22041.0, 22012.0, 22005.0, 22003.0, 22006.0, 22020.0, 22036.0, 22066.0, 22067.0, 22044.0, 22036.0, 22018.0, 22007.0, 21988.0, 21980.0, 22000.0, 21987.0, 21994.0, 22007.0, 22026.0, 22062.0, 22086.0, 22096.0, 22080.0, 22099.0, 22124.0, 22105.0, 22081.0, 22068.0, 22055.0, 22007.0, 22001.0, 21979.0, 21970.0, 21971.0, 21974.0, 21967.0, 21961.0, 21966.0, 21961.0, 21961.0, 21966.0, 21959.0, 21978.0, 22015.0, 22030.0, 22036.0, 22042.0, 22032.0, 22033.0, 22031.0, 22034.0, 22047.0, 22040.0, 22058.0, 22071.0, 22070.0, 22040.0, 22034.0, 22028.0, 22016.0, 22009.0, 22004.0, 22019.0, 22022.0, 22023.0, 22036.0, 22053.0, 22049.0, 22052.0, 22057.0, 22059.0, 22064.0, 22051.0, 22032.0, 22001.0, 21988.0, 21974.0, 21982.0, 22013.0, 22032.0, 22045.0, 22031.0, 22027.0, 22008.0, 21991.0, 21979.0, 21986.0, 21983.0, 21982.0, 21992.0, 21977.0, 21978.0, 21981.0, 21973.0, 21979.0, 21979.0, 21990.0, 22006.0, 22002.0, 22014.0, 22008.0, 22024.0, 22018.0, 22025.0, 22036.0, 22036.0, 22016.0, 22023.0, 22009.0, 22004.0, 21986.0, 21995.0, 22005.0, 22005.0, 22028.0]
    },
    "slices": {}
  }
}