{
  "AcquisitionMatrixPE": 104,
  "AcquisitionNumber": 1,
  "AcquisitionTime": "11:06:46.560000",
  "BandwidthPerPixelPhaseEncode": 16.578,
  "BaseResolution": 104,
  "BodyPartExamined": "BRAIN",
  "ConsistencyInfo": "N4_VE11C_LATEST_20160120",
  "ConversionSoftware": "dcm2niix",
  "ConversionSoftwareVersion": "v1.0.20190410  GCC6.3.0",
  "DerivedVendorReportedEchoSpacing": 0.000580009,
  "DeviceSerialNumber": "166018",
  "DwellTime": 2.1e-06,
  "EchoTime": 0.037,
  "EchoTrainLength": 104,
  "EffectiveEchoSpacing": 0.000580009,
  "FlipAngle": 68,
  "ImageComments": "Unaliased_MB6_PE3_LB",
  "ImageOrientationPatientDICOM": [0.995442, 0.0831316, 0.0467403, -0.0820152, 0.996309, -0.0253203],
  "ImageType": [
    "ORIGINAL",
    "PRIMARY",
    "M",
    "MB",
    "ND",
    "MOSAIC"
],
  "ImagingFrequency": 123.191,
  "InPlanePhaseEncodingDirectionDICOM": "COL",
  "InstitutionAddress": "Washington_Place_6_NYC_NYC_US_10003",
  "InstitutionName": "NYU_Center_for_Brain_Imaging",
  "InstitutionalDepartmentName": "Department",
  "MRAcquisitionType": "2D",
  "MagneticFieldStrength": 3,
  "Manufacturer": "Siemens",
  "ManufacturersModelName": "Prisma",
  "Modality": "MR",
  "MultibandAccelerationFactor": 6,
  "PartialFourier": 1,
  "PatientPosition": "HFS",
  "PercentPhaseFOV": 100,
  "PhaseEncodingDirection": "j",
  "PhaseEncodingSteps": 104,
  "PhaseResolution": 1,
  "PixelBandwidth": 2290,
  "ProcedureStepDescription": "Investigators_Winawer",
  "ProtocolName": "task-sfprescaled_cmrr_mbepi_s6_2mm_66sl_PA_TR1.0",
  "PulseSequenceDetails": "%CustomerSeq%_cmrr_mbep2d_bold",
  "ReceiveCoilActiveElements": "HC1-7",
  "ReceiveCoilName": "HeadNeck_64",
  "ReconMatrixPE": 104,
  "RepetitionTime": 1,
  "SAR": 0.0685127,
  "ScanOptions": "FS",
  "ScanningSequence": "EP",
  "SequenceName": "epfid2d1_104",
  "SequenceVariant": "SK_SS",
  "SeriesDescription": "task-sfprescaled_cmrr_mbepi_s6_2mm_66sl_PA_TR1.0",
  "SeriesNumber": 30,
  "ShimSetting": [277, -12593, -8545, 325, -6, -111, -35, 26],
  "SliceThickness": 2,
  "SliceTiming": [0, 0.535, 0.09, 0.6225, 0.1775, 0.7125, 0.2675, 0.8025, 0.3575, 0.89, 0.445, 0, 0.535, 0.09, 0.6225, 0.1775, 0.7125, 0.2675, 0.8025, 0.3575, 0.89, 0.445, 0, 0.535, 0.09, 0.6225, 0.1775, 0.7125, 0.2675, 0.8025, 0.3575, 0.89, 0.445, 0, 0.535, 0.09, 0.6225, 0.1775, 0.7125, 0.2675, 0.8025, 0.3575, 0.89, 0.445, 0, 0.535, 0.09, 0.6225, 0.1775, 0.7125, 0.2675, 0.8025, 0.3575, 0.89, 0.445, 0, 0.535, 0.09, 0.6225, 0.1775, 0.7125, 0.2675, 0.8025, 0.3575, 0.89, 0.445],
  "SoftwareVersions": "syngo_MR_E11",
  "SpacingBetweenSlices": 2,
  "StationName": "AWP166018",
  "TaskName": "sfprescaled",
  "TotalReadoutTime": 0.0597409,
  "TxRefAmp": 203.092,
  "WipMemBlock": "7de05b99-da33-4cf8-aed5-c1e525a8e42a||Sequence: R016 ve11c/master r/8780670; Nov 27 2017 15:05:12 by eja",
  "dcmmeta_affine": [
    [-1.990883708000183, -0.16403035819530487, 0.09734547138214111, 113.74717712402344],
    [-0.16626325249671936, 1.9926187992095947, -0.04274289309978485, -73.30086517333984],
    [0.09348063915967941, 0.05064055323600769, 1.997172236442566, -41.04076385498047],
    [0.0, 0.0, 0.0, 1.0]
],
  "dcmmeta_reorient_transform": [
    [0.0, -1.0, 0.0, 103.0],
    [1.0, 0.0, 0.0, 0.0],
    [0.0, 0.0, 1.0, 0.0],
    [0.0, 0.0, 0.0, 1.0]
],
  "dcmmeta_shape": [104, 104, 66, 264],
  "dcmmeta_slice_dim": 2,
  "dcmmeta_version": 0.6,
  "global": {
    "const": {
      "AccessionNumber": "jv3y3i0c",
  "NumberOfVolumes": 264,
      "AcquisitionMatrix": [104, 0, 0, 104],
      "AngioFlag": "N",
      "BitsAllocated": 16,
      "BitsStored": 16,
      "BodyPartExamined": "BRAIN",
      "Columns": 936,
      "EchoNumbers": 1,
      "EchoTime": 37.0,
      "EchoTrainLength": 104,
      "FlipAngle": 68.0,
      "HighBit": 15,
      "ImageOrientationPatient": [0.99544184899904, 0.08313162831178, 0.04674032130395, -0.0820151813389, 0.99630938650778, -0.0253202761922],
      "ImagePositionPatient": [-856.82303483909, -1030.0337956389, -53.646265343491],
      "ImageType": [
        "ORIGINAL",
        "PRIMARY",
        "M",
        "MB",
        "ND",
        "MOSAIC"
],
      "ImagedNucleus": "1H",
      "ImagingFrequency": 123.191083,
      "InPlanePhaseEncodingDirection": "COL",
      "MRAcquisitionType": "2D",
      "MagneticFieldStrength": 3.0,
      "Manufacturer": "SIEMENS",
      "ManufacturerModelName": "Prisma",
      "Modality": "MR",
      "NumberOfAverages": 1.0,
      "NumberOfPhaseEncodingSteps": 104,
      "PercentPhaseFieldOfView": 100.0,
      "PercentSampling": 100.0,
      "PerformedProcedureStepStartTime": "100021.887000",
      "PhotometricInterpretation": "MONOCHROME2",
      "PixelBandwidth": 2290.0,
      "PixelRepresentation": 0,
      "PixelSpacing": [2.0, 2.0],
      "ProtocolName": "task-sfprescaled_cmrr_mbepi_s6_2mm_66sl_PA_TR1.0",
      "RepetitionTime": 1000.0,
      "Rows": 936,
      "SAR": 0.06851266208846,
      "SamplesPerPixel": 1,
      "ScanOptions": "FS",
      "ScanningSequence": "EP",
      "SequenceName": "epfid2d1_104",
      "SequenceVariant": [
        "SK",
        "SS"
],
      "SeriesDescription": "task-sfprescaled_cmrr_mbepi_s6_2mm_66sl_PA_TR1.0",
      "SeriesNumber": 30,
      "SeriesTime": "110741.860000",
      "SliceLocation": -33.879805977721,
      "SliceThickness": 2.0,
      "SmallestImagePixelValue": 0,
      "SoftwareVersions": "syngo MR E11",
      "SpacingBetweenSlices": 2.0000000256817,
      "SpecificCharacterSet": "ISO_IR 100",
      "StudyID": "1",
      "StudyTime": "100021.836000",
      "TransmitCoilName": "Body",
      "VariableFlipAngleFlag": "N",
      "WindowCenterWidthExplanation": "Algo1",
      "dBdt": 0.0},
    "slices": {}
  },
  "time": {
    "samples": {
      "AcquisitionNumber": [1, 2, 3, 4, 5, 6, 7, 8, 9, 10, 11, 12, 13, 14, 15, 16, 17, 18, 19, 20, 21, 22, 23, 24, 25, 26, 27, 28, 29, 30, 31, 32, 33, 34, 35, 36, 37, 38, 39, 40, 41, 42, 43, 44, 45, 46, 47, 48, 49, 50, 51, 52, 53, 54, 55, 56, 57, 58, 59, 60, 61, 62, 63, 64, 65, 66, 67, 68, 69, 70, 71, 72, 73, 74, 75, 76, 77, 78, 79, 80, 81, 82, 83, 84, 85, 86, 87, 88, 89, 90, 91, 92, 93, 94, 95, 96, 97, 98, 99, 100, 101, 102, 103, 104, 105, 106, 107, 108, 109, 110, 111, 112, 113, 114, 115, 116, 117, 118, 119, 120, 121, 122, 123, 124, 125, 126, 127, 128, 129, 130, 131, 132, 133, 134, 135, 136, 137, 138, 139, 140, 141, 142, 143, 144, 145, 146, 147, 148, 149, 150, 151, 152, 153, 154, 155, 156, 157, 158, 159, 160, 161, 162, 163, 164, 165, 166, 167, 168, 169, 170, 171, 172, 173, 174, 175, 176, 177, 178, 179, 180, 181, 182, 183, 184, 185, 186, 187, 188, 189, 190, 191, 192, 193, 194, 195, 196, 197, 198, 199, 200, 201, 202, 203, 204, 205, 206, 207, 208, 209, 210, 211, 212, 213, 214, 215, 216, 217, 218, 219, 220, 221, 222, 223, 224, 225, 226, 227, 228, 229, 230, 231, 232, 233, 234, 235, 236, 237, 238, 239, 240, 241, 242, 243, 244, 245, 246, 247, 248, 249, 250, 251, 252, 253, 254, 255, 256, 257, 258, 259, 260, 261, 262, 263, 264],
      "AcquisitionTime": ["110646.560000", "110647.560000", "110648.560000", "110649.560000", "110650.560000", "110651.560000", "110652.560000", "110653.560000", "110654.560000", "110655.560000", "110656.560000", "110657.560000", "110658.560000", "110659.560000", "110700.560000", "110701.560000", "110702.560000", "110703.560000", "110704.560000", "110705.560000", "110706.560000", "110707.560000", "110708.560000", "110709.560000", "110710.560000", "110711.560000", "110712.560000", "110713.560000", "110714.560000", "110715.560000", "110716.560000", "110717.560000", "110718.560000", "110719.560000", "110720.560000", "110721.560000", "110722.560000", "110723.560000", "110724.560000", "110725.560000", "110726.560000", "110727.560000", "110728.560000", "110729.560000", "110730.560000", "110731.560000", "110732.560000", "110733.560000", "110734.560000", "110735.560000", "110736.560000", "110737.560000", "110738.560000", "110739.560000", "110740.560000", "110741.560000", "110742.560000", "110743.560000", "110744.560000", "110745.560000", "110746.560000", "110747.560000", "110748.560000", "110749.560000", "110750.560000", "110751.560000", "110752.560000", "110753.560000", "110754.560000", "110755.560000", "110756.560000", "110757.560000", "110758.560000", "110759.560000", "110800.560000", "110801.560000", "110802.560000", "110803.560000", "110804.560000", "110805.560000", "110806.560000", "110807.560000", "110808.560000", "110809.560000", "110810.560000", "110811.560000", "110812.560000", "110813.560000", "110814.560000", "110815.560000", "110816.560000", "110817.560000", "110818.560000", "110819.560000", "110820.560000", "110821.560000", "110822.560000", "110823.560000", "110824.560000", "110825.560000", "110826.560000", "110827.560000", "110828.560000", "110829.560000", "110830.560000", "110831.560000", "110832.560000", "110833.560000", "110834.560000", "110835.560000", "110836.560000", "110837.560000", "110838.560000", "110839.560000", "110840.560000", "110841.560000", "110842.560000", "110843.560000", "110844.560000", "110845.560000", "110846.560000", "110847.560000", "110848.560000", "110849.560000", "110850.560000", "110851.560000", "110852.560000", "110853.560000", "110854.560000", "110855.560000", "110856.560000", "110857.560000", "110858.560000", "110859.560000", "110900.560000", "110901.560000", "110902.560000", "110903.560000", "110904.560000", "110905.560000", "110906.560000", "110907.560000", "110908.560000", "110909.560000", "110910.560000", "110911.560000", "110912.560000", "110913.560000", "110914.560000", "110915.560000", "110916.560000", "110917.560000", "110918.560000", "110919.560000", "110920.560000", "110921.560000", "110922.560000", "110923.560000", "110924.560000", "110925.560000", "110926.560000", "110927.560000", "110928.560000", "110929.560000", "110930.560000", "110931.560000", "110932.560000", "110933.560000", "110934.560000", "110935.560000", "110936.560000", "110937.560000", "110938.560000", "110939.560000", "110940.560000", "110941.560000", "110942.560000", "110943.560000", "110944.560000", "110945.560000", "110946.560000", "110947.560000", "110948.560000", "110949.560000", "110950.560000", "110951.560000", "110952.560000", "110953.560000", "110954.560000", "110955.560000", "110956.560000", "110957.560000", "110958.560000", "110959.560000", "111000.560000", "111001.560000", "111002.560000", "111003.560000", "111004.560000", "111005.560000", "111006.560000", "111007.560000", "111008.560000", "111009.560000", "111010.560000", "111011.560000", "111012.560000", "111013.560000", "111014.560000", "111015.560000", "111016.560000", "111017.560000", "111018.560000", "111019.560000", "111020.560000", "111021.560000", "111022.560000", "111023.560000", "111024.560000", "111025.560000", "111026.560000", "111027.560000", "111028.560000", "111029.560000", "111030.560000", "111031.560000", "111032.560000", "111033.560000", "111034.560000", "111035.560000", "111036.560000", "111037.560000", "111038.560000", "111039.560000", "111040.560000", "111041.560000", "111042.560000", "111043.560000", "111044.560000", "111045.560000", "111046.560000", "111047.560000", "111048.560000", "111049.560000", "111050.560000", "111051.560000", "111052.560000", "111053.560000", "111054.560000", "111055.560000", "111056.560000", "111057.560000", "111058.560000", "111059.560000", "111100.560000", "111101.560000", "111102.560000", "111103.560000", "111104.560000", "111105.560000", "111106.560000", "111107.560000", "111108.560000", "111109.560000"],
      "ContentTime": ["110741.862000", "110741.866000", "110741.869000", "110741.872000", "110741.874000", "110746.828000", "110746.854000", "110746.857000", "110746.860000", "110746.863000", "110746.866000", "110746.872000", "110751.828000", "110751.831000", "110751.834000", "110751.837000", "110751.840000", "110751.849000", "110751.852000", "110756.829000", "110756.832000", "110756.834000", "110756.837000", "110756.840000", "110756.843000", "110756.862000", "110756.865000", "110801.829000", "110801.832000", "110801.843000", "110801.846000", "110801.848000", "110801.851000", "110801.854000", "110806.828000", "110806.831000", "110806.834000", "110806.837000", "110806.840000", "110806.842000", "110806.845000", "110811.829000", "110811.832000", "110811.835000", "110811.838000", "110811.840000", "110811.843000", "110811.846000", "110816.829000", "110816.832000", "110816.835000", "110816.838000", "110816.840000", "110816.843000", "110816.846000", "110821.828000", "110821.831000", "110821.834000", "110821.836000", "110821.839000", "110821.853000", "110821.856000", "110826.828000", "110826.831000", "110826.834000", "110826.837000", "110826.839000", "110826.842000", "110826.845000", "110831.829000", "110831.832000", "110831.835000", "110831.837000", "110831.840000", "110831.843000", "110831.846000", "110836.829000", "110836.832000", "110836.835000", "110836.838000", "110836.841000", "110836.843000", "110836.846000", "110841.828000", "110841.831000", "110841.834000", "110841.837000", "110841.840000", "110841.842000", "110841.845000", "110846.829000", "110846.832000", "110846.835000", "110846.838000", "110846.841000", "110846.843000", "110846.846000", "110851.829000", "110851.832000", "110851.835000", "110851.838000", "110851.840000", "110851.843000", "110851.846000", "110856.828000", "110856.831000", "110856.834000", "110856.837000", "110856.839000", "110856.842000", "110856.845000", "110901.828000", "110901.831000", "110901.834000", "110901.837000", "110901.839000", "110901.842000", "110901.845000", "110906.829000", "110906.832000", "110906.835000", "110906.838000", "110906.840000", "110906.843000", "110906.846000", "110911.829000", "110911.832000", "110911.835000", "110911.838000", "110911.841000", "110911.844000", "110911.846000", "110911.849000", "110916.828000", "110916.831000", "110916.834000", "110916.837000", "110916.839000", "110916.842000", "110916.845000", "110921.829000", "110921.832000", "110921.835000", "110921.837000", "110921.840000", "110921.843000", "110921.846000", "110926.829000", "110926.832000", "110926.835000", "110926.838000", "110926.840000", "110926.843000", "110926.846000", "110931.828000", "110931.831000", "110931.834000", "110931.837000", "110931.840000", "110931.843000", "110931.845000", "110936.828000", "110936.831000", "110936.834000", "110936.837000", "110936.840000", "110936.842000", "110936.845000", "110941.829000", "110941.832000", "110941.835000", "110941.838000", "110941.841000", "110941.843000", "110946.829000", "110946.832000", "110946.835000", "110946.838000", "110946.840000", "110951.828000", "110951.831000", "110951.834000", "110951.837000", "110951.839000", "110956.829000", "110956.832000", "110956.835000", "110956.838000", "110956.840000", "111001.829000", "111001.832000", "111001.835000", "111001.838000", "111001.840000", "111006.828000", "111006.831000", "111006.834000", "111006.837000", "111006.840000", "111011.828000", "111011.831000", "111011.834000", "111011.837000", "111011.840000", "111016.829000", "111016.832000", "111016.835000", "111016.838000", "111016.840000", "111021.829000", "111021.832000", "111021.835000", "111021.838000", "111021.841000", "111026.828000", "111026.831000", "111026.834000", "111026.837000", "111026.839000", "111031.829000", "111031.832000", "111031.839000", "111031.841000", "111031.844000", "111036.829000", "111036.832000", "111036.835000", "111036.838000", "111036.841000", "111041.828000", "111041.831000", "111041.834000", "111041.837000", "111041.839000", "111046.828000", "111046.831000", "111046.834000", "111046.837000", "111046.839000", "111051.829000", "111051.832000", "111051.835000", "111051.838000", "111051.840000", "111056.829000", "111056.832000", "111056.835000", "111056.838000", "111056.841000", "111101.828000", "111101.831000", "111101.834000", "111101.837000", "111101.839000", "111106.829000", "111106.832000", "111106.835000", "111106.838000", "111106.840000", "111111.205000", "111111.210000", "111111.215000", "111111.219000", "111111.222000"],
      "InstanceCreationTime": ["110741.862000", "110741.866000", "110741.869000", "110741.872000", "110741.874000", "110746.828000", "110746.854000", "110746.857000", "110746.860000", "110746.863000", "110746.866000", "110746.872000", "110751.828000", "110751.831000", "110751.834000", "110751.837000", "110751.840000", "110751.849000", "110751.852000", "110756.829000", "110756.832000", "110756.834000", "110756.837000", "110756.840000", "110756.843000", "110756.862000", "110756.865000", "110801.829000", "110801.832000", "110801.843000", "110801.846000", "110801.848000", "110801.851000", "110801.854000", "110806.828000", "110806.831000", "110806.834000", "110806.837000", "110806.840000", "110806.842000", "110806.845000", "110811.829000", "110811.832000", "110811.835000", "110811.838000", "110811.840000", "110811.843000", "110811.846000", "110816.829000", "110816.832000", "110816.835000", "110816.838000", "110816.840000", "110816.843000", "110816.846000", "110821.828000", "110821.831000", "110821.834000", "110821.836000", "110821.839000", "110821.853000", "110821.856000", "110826.828000", "110826.831000", "110826.834000", "110826.837000", "110826.839000", "110826.842000", "110826.845000", "110831.829000", "110831.832000", "110831.835000", "110831.837000", "110831.840000", "110831.843000", "110831.846000", "110836.829000", "110836.832000", "110836.835000", "110836.838000", "110836.841000", "110836.843000", "110836.846000", "110841.828000", "110841.831000", "110841.834000", "110841.837000", "110841.840000", "110841.842000", "110841.845000", "110846.829000", "110846.832000", "110846.835000", "110846.838000", "110846.841000", "110846.843000", "110846.846000", "110851.829000", "110851.832000", "110851.835000", "110851.838000", "110851.840000", "110851.843000", "110851.846000", "110856.828000", "110856.831000", "110856.834000", "110856.837000", "110856.839000", "110856.842000", "110856.845000", "110901.828000", "110901.831000", "110901.834000", "110901.837000", "110901.839000", "110901.842000", "110901.845000", "110906.829000", "110906.832000", "110906.835000", "110906.838000", "110906.840000", "110906.843000", "110906.846000", "110911.829000", "110911.832000", "110911.835000", "110911.838000", "110911.841000", "110911.844000", "110911.846000", "110911.849000", "110916.828000", "110916.831000", "110916.834000", "110916.837000", "110916.839000", "110916.842000", "110916.845000", "110921.829000", "110921.832000", "110921.835000", "110921.837000", "110921.840000", "110921.843000", "110921.846000", "110926.829000", "110926.832000", "110926.835000", "110926.838000", "110926.840000", "110926.843000", "110926.846000", "110931.828000", "110931.831000", "110931.834000", "110931.837000", "110931.840000", "110931.843000", "110931.845000", "110936.828000", "110936.831000", "110936.834000", "110936.837000", "110936.840000", "110936.842000", "110936.845000", "110941.829000", "110941.832000", "110941.835000", "110941.838000", "110941.841000", "110941.843000", "110946.829000", "110946.832000", "110946.835000", "110946.838000", "110946.840000", "110951.828000", "110951.831000", "110951.834000", "110951.837000", "110951.839000", "110956.829000", "110956.832000", "110956.835000", "110956.838000", "110956.840000", "111001.829000", "111001.832000", "111001.835000", "111001.838000", "111001.840000", "111006.828000", "111006.831000", "111006.834000", "111006.837000", "111006.840000", "111011.828000", "111011.831000", "111011.834000", "111011.837000", "111011.840000", "111016.829000", "111016.832000", "111016.835000", "111016.838000", "111016.840000", "111021.829000", "111021.832000", "111021.835000", "111021.838000", "111021.841000", "111026.828000", "111026.831000", "111026.834000", "111026.837000", "111026.839000", "111031.829000", "111031.832000", "111031.839000", "111031.841000", "111031.844000", "111036.829000", "111036.832000", "111036.835000", "111036.838000", "111036.841000", "111041.828000", "111041.831000", "111041.834000", "111041.837000", "111041.839000", "111046.828000", "111046.831000", "111046.834000", "111046.837000", "111046.839000", "111051.829000", "111051.832000", "111051.835000", "111051.838000", "111051.840000", "111056.829000", "111056.832000", "111056.835000", "111056.838000", "111056.841000", "111101.828000", "111101.831000", "111101.834000", "111101.837000", "111101.839000", "111106.829000", "111106.832000", "111106.835000", "111106.838000", "111106.840000", "111111.205000", "111111.210000", "111111.215000", "111111.219000", "111111.222000"],
      "InstanceNumber": [1, 2, 3, 4, 5, 6, 7, 8, 9, 10, 11, 12, 13, 14, 15, 16, 17, 18, 19, 20, 21, 22, 23, 24, 25, 26, 27, 28, 29, 30, 31, 32, 33, 34, 35, 36, 37, 38, 39, 40, 41, 42, 43, 44, 45, 46, 47, 48, 49, 50, 51, 52, 53, 54, 55, 56, 57, 58, 59, 60, 61, 62, 63, 64, 65, 66, 67, 68, 69, 70, 71, 72, 73, 74, 75, 76, 77, 78, 79, 80, 81, 82, 83, 84, 85, 86, 87, 88, 89, 90, 91, 92, 93, 94, 95, 96, 97, 98, 99, 100, 101, 102, 103, 104, 105, 106, 107, 108, 109, 110, 111, 112, 113, 114, 115, 116, 117, 118, 119, 120, 121, 122, 123, 124, 125, 126, 127, 128, 129, 130, 131, 132, 133, 134, 135, 136, 137, 138, 139, 140, 141, 142, 143, 144, 145, 146, 147, 148, 149, 150, 151, 152, 153, 154, 155, 156, 157, 158, 159, 160, 161, 162, 163, 164, 165, 166, 167, 168, 169, 170, 171, 172, 173, 174, 175, 176, 177, 178, 179, 180, 181, 182, 183, 184, 185, 186, 187, 188, 189, 190, 191, 192, 193, 194, 195, 196, 197, 198, 199, 200, 201, 202, 203, 204, 205, 206, 207, 208, 209, 210, 211, 212, 213, 214, 215, 216, 217, 218, 219, 220, 221, 222, 223, 224, 225, 226, 227, 228, 229, 230, 231, 232, 233, 234, 235, 236, 237, 238, 239, 240, 241, 242, 243, 244, 245, 246, 247, 248, 249, 250, 251, 252, 253, 254, 255, 256, 257, 258, 259, 260, 261, 262, 263, 264],
      "LargestImagePixelValue": [42152, 39749, 39827, 38737, 38445, 38459, 38688, 38667, 38433, 38377, 38738, 38343, 38579, 38750, 38311, 38119, 38198, 38350, 38561, 38621, 39479, 38631, 38608, 38589, 38978, 38709, 38955, 38299, 38159, 39528, 38316, 39352, 38340, 38348, 38842, 38210, 38509, 37848, 38273, 38826, 38854, 38544, 37705, 38219, 38813, 38670, 38182, 38224, 38544, 38778, 38713, 38348, 39151, 38197, 38809, 38189, 38535, 38142, 39287, 38677, 38700, 38267, 38622, 37894, 38998, 38251, 38405, 38153, 38504, 37908, 38908, 38407, 38314, 38563, 39424, 38063, 38304, 38481, 38480, 38393, 38701, 38528, 38923, 38700, 38058, 38222, 37929, 38203, 38233, 38668, 37772, 38475, 38233, 38983, 38601, 39309, 39124, 39312, 38061, 38287, 38001, 39100, 38209, 39259, 38251, 38344, 38838, 38543, 38320, 38025, 38544, 38092, 38395, 38435, 38487, 38195, 38565, 37991, 38256, 38559, 38409, 38396, 37972, 38123, 38525, 37896, 38583, 38793, 38202, 38552, 38391, 38425, 38520, 38727, 38466, 38120, 38747, 38499, 38332, 38466, 38544, 38775, 38376, 38342, 38340, 38198, 38674, 38590, 38438, 38483, 38680, 38510, 38129, 38670, 38025, 38358, 38377, 38618, 38195, 38741, 38210, 38549, 38264, 38707, 38148, 38256, 38775, 38580, 38219, 38383, 38514, 38199, 38492, 38192, 38338, 38139, 38718, 38210, 38403, 37992, 38566, 38058, 38607, 38411, 38385, 38286, 38356, 38056, 38781, 38116, 38525, 38359, 38657, 38493, 37949, 38490, 38225, 38171, 38268, 38323, 38437, 38435, 38594, 37936, 38158, 38063, 38574, 38261, 38706, 37915, 38314, 38145, 38221, 38469, 38041, 38063, 38768, 37974, 38707, 38433, 38230, 38425, 38386, 38637, 38652, 38634, 38518, 38284, 38485, 38201, 38478, 38392, 38513, 38553, 38635, 38067, 38807, 39239, 38451, 38281, 38678, 38628, 38495, 38533, 37857, 38184, 38722, 38326, 38513, 38578, 38476, 38556, 38216, 38929, 38449, 38742, 38551, 38278, 38722, 38171, 38487, 38915, 38413, 38683],
      "WindowCenter": [10247.0, 10184.0, 10167.0, 10146.0, 10143.0, 10137.0, 10140.0, 10146.0, 10149.0, 10149.0, 10148.0, 10148.0, 10155.0, 10155.0, 10163.0, 10167.0, 10169.0, 10174.0, 10182.0, 10185.0, 10191.0, 10193.0, 10187.0, 10188.0, 10197.0, 10193.0, 10192.0, 10189.0, 10175.0, 10188.0, 10174.0, 10182.0, 10175.0, 10187.0, 10187.0, 10183.0, 10189.0, 10178.0, 10182.0, 10188.0, 10185.0, 10181.0, 10175.0, 10175.0, 10193.0, 10199.0, 10192.0, 10191.0, 10189.0, 10186.0, 10186.0, 10182.0, 10183.0, 10181.0, 10188.0, 10181.0, 10183.0, 10175.0, 10182.0, 10178.0, 10178.0, 10178.0, 10184.0, 10170.0, 10182.0, 10178.0, 10178.0, 10173.0, 10177.0, 10162.0, 10168.0, 10163.0, 10163.0, 10168.0, 10186.0, 10179.0, 10184.0, 10187.0, 10192.0, 10187.0, 10183.0, 10180.0, 10176.0, 10176.0, 10172.0, 10171.0, 10166.0, 10172.0, 10173.0, 10183.0, 10175.0, 10179.0, 10167.0, 10186.0, 10192.0, 10203.0, 10186.0, 10189.0, 10168.0, 10171.0, 10158.0, 10169.0, 10155.0, 10171.0, 10171.0, 10177.0, 10178.0, 10172.0, 10164.0, 10152.0, 10155.0, 10149.0, 10155.0, 10155.0, 10148.0, 10150.0, 10160.0, 10164.0, 10185.0, 10194.0, 10197.0, 10197.0, 10185.0, 10176.0, 10174.0, 10161.0, 10169.0, 10175.0, 10165.0, 10174.0, 10180.0, 10189.0, 10190.0, 10196.0, 10183.0, 10177.0, 10188.0, 10180.0, 10180.0, 10181.0, 10187.0, 10186.0, 10188.0, 10182.0, 10180.0, 10174.0, 10177.0, 10178.0, 10182.0, 10182.0, 10194.0, 10190.0, 10179.0, 10189.0, 10177.0, 10181.0, 10173.0, 10172.0, 10154.0, 10158.0, 10153.0, 10157.0, 10158.0, 10170.0, 10167.0, 10174.0, 10172.0, 10167.0, 10160.0, 10168.0, 10169.0, 10170.0, 10181.0, 10171.0, 10169.0, 10161.0, 10169.0, 10154.0, 10164.0, 10165.0, 10171.0, 10160.0, 10163.0, 10161.0, 10156.0, 10156.0, 10157.0, 10149.0, 10154.0, 10149.0, 10155.0, 10162.0, 10169.0, 10171.0, 10159.0, 10165.0, 10166.0, 10159.0, 10171.0, 10172.0, 10174.0, 10173.0, 10179.0, 10164.0, 10162.0, 10162.0, 10172.0, 10170.0, 10165.0, 10150.0, 10158.0, 10158.0, 10159.0, 10165.0, 10168.0, 10168.0, 10180.0, 10176.0, 10174.0, 10169.0, 10158.0, 10154.0, 10157.0, 10164.0, 10162.0, 10164.0, 10165.0, 10170.0, 10167.0, 10169.0, 10174.0, 10175.0, 10183.0, 10182.0, 10182.0, 10169.0, 10173.0, 10174.0, 10165.0, 10181.0, 10182.0, 10176.0, 10178.0, 10177.0, 10158.0, 10154.0, 10156.0, 10143.0, 10135.0, 10147.0, 10168.0, 10185.0, 10183.0, 10192.0, 10169.0, 10159.0, 10153.0, 10144.0, 10155.0, 10151.0, 10159.0, 10164.0, 10160.0, 10164.0],
      "WindowWidth": [22207.0, 22029.0, 21963.0, 21905.0, 21888.0, 21872.0, 21876.0, 21889.0, 21894.0, 21894.0, 21889.0, 21890.0, 21906.0, 21907.0, 21926.0, 21936.0, 21944.0, 21956.0, 21971.0, 21978.0, 21990.0, 21996.0, 21980.0, 21985.0, 22003.0, 21995.0, 21993.0, 21986.0, 21957.0, 21979.0, 21954.0, 21968.0, 21959.0, 21982.0, 21985.0, 21979.0, 21990.0, 21967.0, 21975.0, 21987.0, 21979.0, 21970.0, 21956.0, 21959.0, 21995.0, 22008.0, 21996.0, 21994.0, 21989.0, 21979.0, 21977.0, 21966.0, 21970.0, 21967.0, 21981.0, 21969.0, 21972.0, 21954.0, 21966.0, 21956.0, 21958.0, 21957.0, 21971.0, 21943.0, 21966.0, 21957.0, 21957.0, 21947.0, 21955.0, 21922.0, 21931.0, 21921.0, 21923.0, 21934.0, 21972.0, 21963.0, 21975.0, 21982.0, 21991.0, 21980.0, 21970.0, 21962.0, 21952.0, 21954.0, 21946.0, 21944.0, 21936.0, 21949.0, 21950.0, 21971.0, 21955.0, 21964.0, 21938.0, 21975.0, 21989.0, 22012.0, 21977.0, 21983.0, 21941.0, 21943.0, 21916.0, 21935.0, 21909.0, 21940.0, 21944.0, 21958.0, 21960.0, 21950.0, 21930.0, 21904.0, 21908.0, 21894.0, 21908.0, 21909.0, 21893.0, 21896.0, 21917.0, 21928.0, 21977.0, 22001.0, 22008.0, 22008.0, 21979.0, 21958.0, 21952.0, 21922.0, 21938.0, 21950.0, 21933.0, 21952.0, 21969.0, 21988.0, 21992.0, 22004.0, 21977.0, 21964.0, 21982.0, 21966.0, 21966.0, 21967.0, 21981.0, 21980.0, 21987.0, 21972.0, 21967.0, 21954.0, 21957.0, 21960.0, 21971.0, 21971.0, 21996.0, 21989.0, 21969.0, 21987.0, 21962.0, 21967.0, 21949.0, 21945.0, 21908.0, 21915.0, 21905.0, 21911.0, 21914.0, 21941.0, 21938.0, 21952.0, 21947.0, 21935.0, 21921.0, 21937.0, 21941.0, 21946.0, 21969.0, 21948.0, 21943.0, 21925.0, 21937.0, 21905.0, 21926.0, 21932.0, 21944.0, 21920.0, 21927.0, 21922.0, 21911.0, 21908.0, 21909.0, 21894.0, 21903.0, 21895.0, 21908.0, 21923.0, 21939.0, 21944.0, 21922.0, 21934.0, 21936.0, 21920.0, 21943.0, 21947.0, 21952.0, 21951.0, 21963.0, 21934.0, 21929.0, 21927.0, 21947.0, 21943.0, 21933.0, 21903.0, 21917.0, 21917.0, 21921.0, 21932.0, 21941.0, 21942.0, 21965.0, 21960.0, 21955.0, 21942.0, 21917.0, 21906.0, 21911.0, 21925.0, 21919.0, 21927.0, 21929.0, 21941.0, 21937.0, 21941.0, 21953.0, 21956.0, 21974.0, 21969.0, 21969.0, 21942.0, 21948.0, 21947.0, 21928.0, 21963.0, 21965.0, 21956.0, 21961.0, 21957.0, 21918.0, 21907.0, 21905.0, 21877.0, 21859.0, 21884.0, 21934.0, 21975.0, 21975.0, 21992.0, 21940.0, 21913.0, 21899.0, 21880.0, 21904.0, 21898.0, 21917.0, 21924.0, 21919.0, 21926.0]
    },
    "slices": {}
  }
}