{
  "AcquisitionMatrixPE": 104,
  "AcquisitionNumber": 1,
  "AcquisitionTime": "12:47:29.562500",
  "BandwidthPerPixelPhaseEncode": 16.578,
  "BaseResolution": 104,
  "BodyPartExamined": "BRAIN",
  "ConsistencyInfo": "N4_VE11C_LATEST_20160120",
  "ConversionSoftware": "dcm2niix",
  "ConversionSoftwareVersion": "v1.0.20190410  GCC6.3.0",
  "DerivedVendorReportedEchoSpacing": 0.000580009,
  "DeviceSerialNumber": "166018",
  "DwellTime": 2.1e-06,
  "EchoTime": 0.037,
  "EchoTrainLength": 104,
  "EffectiveEchoSpacing": 0.000580009,
  "FlipAngle": 68,
  "ImageComments": "Unaliased_MB6_PE3_LB",
  "ImageOrientationPatientDICOM": [0.999945, -4.20061e-05, 0.010477, 0.00226878, 0.977133, -0.212619],
  "ImageType": [
    "ORIGINAL",
    "PRIMARY",
    "M",
    "MB",
    "ND",
    "MOSAIC"
],
  "ImagingFrequency": 123.191,
  "InPlanePhaseEncodingDirectionDICOM": "COL",
  "InstitutionAddress": "Washington_Place_6_NYC_NYC_US_10003",
  "InstitutionName": "NYU_Center_for_Brain_Imaging",
  "InstitutionalDepartmentName": "Department",
  "MRAcquisitionType": "2D",
  "MagneticFieldStrength": 3,
  "Manufacturer": "Siemens",
  "ManufacturersModelName": "Prisma",
  "Modality": "MR",
  "MultibandAccelerationFactor": 6,
  "PartialFourier": 1,
  "PatientPosition": "HFS",
  "PercentPhaseFOV": 100,
  "PhaseEncodingDirection": "j",
  "PhaseEncodingSteps": 104,
  "PhaseResolution": 1,
  "PixelBandwidth": 2290,
  "ProcedureStepDescription": "Investigators_Winawer",
  "ProtocolName": "task-sfprescaled_mbepi_s6_2mm_66sl_PA_TR1.0-",
  "PulseSequenceDetails": "%CustomerSeq%_cmrr_mbep2d_bold",
  "ReceiveCoilActiveElements": "HC1-7",
  "ReceiveCoilName": "HeadNeck_64",
  "ReconMatrixPE": 104,
  "RepetitionTime": 1,
  "SAR": 0.0706464,
  "ScanOptions": "FS",
  "ScanningSequence": "EP",
  "SequenceName": "epfid2d1_104",
  "SequenceVariant": "SK_SS",
  "SeriesDescription": "task-sfprescaled_mbepi_s6_2mm_66sl_PA_TR1.0-",
  "SeriesNumber": 26,
  "ShimSetting": [283, -12618, -8461, 445, 86, -59, -129, -57],
  "SliceThickness": 2,
  "SliceTiming": [0, 0.535, 0.09, 0.625, 0.1775, 0.7125, 0.2675, 0.8025, 0.3575, 0.89, 0.445, 0, 0.535, 0.09, 0.625, 0.1775, 0.7125, 0.2675, 0.8025, 0.3575, 0.89, 0.445, 0, 0.535, 0.09, 0.625, 0.1775, 0.7125, 0.2675, 0.8025, 0.3575, 0.89, 0.445, 0, 0.535, 0.09, 0.625, 0.1775, 0.7125, 0.2675, 0.8025, 0.3575, 0.89, 0.445, 0, 0.535, 0.09, 0.625, 0.1775, 0.7125, 0.2675, 0.8025, 0.3575, 0.89, 0.445, 0, 0.535, 0.09, 0.625, 0.1775, 0.7125, 0.2675, 0.8025, 0.3575, 0.89, 0.445],
  "SoftwareVersions": "syngo_MR_E11",
  "SpacingBetweenSlices": 2,
  "StationName": "AWP166018",
  "TaskName": "sfprescaled",
  "TotalReadoutTime": 0.0597409,
  "TxRefAmp": 215.643,
  "WipMemBlock": "34fe9896-9353-452e-b995-7f6b7128c97a||Sequence: R016 ve11c/master r/8780670; Nov 27 2017 15:05:12 by eja",
  "dcmmeta_affine": [
    [-1.9998902082443237, 0.004537566099315882, 0.02045702561736107, 110.97503662109375],
    [8.4012295701541e-05, 1.9542652368545532, -0.42526179552078247, -81.9362564086914],
    [0.020954053848981857, 0.42523759603500366, 1.954158067703247, -73.46516418457031],
    [0.0, 0.0, 0.0, 1.0]
],
  "dcmmeta_reorient_transform": [
    [0.0, -1.0, 0.0, 103.0],
    [1.0, 0.0, 0.0, 0.0],
    [0.0, 0.0, 1.0, 0.0],
    [0.0, 0.0, 0.0, 1.0]
],
  "dcmmeta_shape": [104, 104, 66, 264],
  "dcmmeta_slice_dim": 2,
  "dcmmeta_version": 0.6,
  "global": {
    "const": {
      "AccessionNumber": "jtu6jhmb",
  "NumberOfVolumes": 264,
      "AcquisitionMatrix": [104, 0, 0, 104],
      "AngioFlag": "N",
      "BitsAllocated": 16,
      "BitsStored": 16,
      "BodyPartExamined": "BRAIN",
      "Columns": 936,
      "EchoNumbers": 1,
      "EchoTime": 37.0,
      "EchoTrainLength": 104,
      "FlipAngle": 68.0,
      "HighBit": 15,
      "ImageOrientationPatient": [0.99994511356325, -4.20061489e-05, 0.01047702708094, 0.00226878296554, 0.97713259133393, -0.212618794035],
      "ImagePositionPatient": [-945.28436869193, -932.29242349066, 138.51625926815],
      "ImageType": [
        "ORIGINAL",
        "PRIMARY",
        "M",
        "MB",
        "ND",
        "MOSAIC"
],
      "ImagedNucleus": "1H",
      "ImagingFrequency": 123.191219,
      "InPlanePhaseEncodingDirection": "COL",
      "MRAcquisitionType": "2D",
      "MagneticFieldStrength": 3.0,
      "Manufacturer": "SIEMENS",
      "ManufacturerModelName": "Prisma",
      "Modality": "MR",
      "NumberOfAverages": 1.0,
      "NumberOfPhaseEncodingSteps": 104,
      "PercentPhaseFieldOfView": 100.0,
      "PercentSampling": 100.0,
      "PerformedProcedureStepStartTime": "115204.018000",
      "PhotometricInterpretation": "MONOCHROME2",
      "PixelBandwidth": 2290.0,
      "PixelRepresentation": 0,
      "PixelSpacing": [2.0, 2.0],
      "ProtocolName": "task-sfprescaled_mbepi_s6_2mm_66sl_PA_TR1.0-",
      "RepetitionTime": 1000.0,
      "Rows": 936,
      "SAR": 0.07064645224032,
      "SamplesPerPixel": 1,
      "ScanOptions": "FS",
      "ScanningSequence": "EP",
      "SequenceName": "epfid2d1_104",
      "SequenceVariant": [
        "SK",
        "SS"
],
      "SeriesDescription": "task-sfprescaled_mbepi_s6_2mm_66sl_PA_TR1.0-",
      "SeriesNumber": 26,
      "SeriesTime": "124819.971000",
      "SliceLocation": -53.223982195688,
      "SliceThickness": 2.0,
      "SmallestImagePixelValue": 0,
      "SoftwareVersions": "syngo MR E11",
      "SpacingBetweenSlices": 1.9999999725963,
      "SpecificCharacterSet": "ISO_IR 100",
      "StudyID": "1",
      "StudyTime": "115203.950000",
      "TransmitCoilName": "Body",
      "VariableFlipAngleFlag": "N",
      "WindowCenterWidthExplanation": "Algo1",
      "dBdt": 0.0},
    "slices": {}
  },
  "time": {
    "samples": {
      "AcquisitionNumber": [1, 2, 3, 4, 5, 6, 7, 8, 9, 10, 11, 12, 13, 14, 15, 16, 17, 18, 19, 20, 21, 22, 23, 24, 25, 26, 27, 28, 29, 30, 31, 32, 33, 34, 35, 36, 37, 38, 39, 40, 41, 42, 43, 44, 45, 46, 47, 48, 49, 50, 51, 52, 53, 54, 55, 56, 57, 58, 59, 60, 61, 62, 63, 64, 65, 66, 67, 68, 69, 70, 71, 72, 73, 74, 75, 76, 77, 78, 79, 80, 81, 82, 83, 84, 85, 86, 87, 88, 89, 90, 91, 92, 93, 94, 95, 96, 97, 98, 99, 100, 101, 102, 103, 104, 105, 106, 107, 108, 109, 110, 111, 112, 113, 114, 115, 116, 117, 118, 119, 120, 121, 122, 123, 124, 125, 126, 127, 128, 129, 130, 131, 132, 133, 134, 135, 136, 137, 138, 139, 140, 141, 142, 143, 144, 145, 146, 147, 148, 149, 150, 151, 152, 153, 154, 155, 156, 157, 158, 159, 160, 161, 162, 163, 164, 165, 166, 167, 168, 169, 170, 171, 172, 173, 174, 175, 176, 177, 178, 179, 180, 181, 182, 183, 184, 185, 186, 187, 188, 189, 190, 191, 192, 193, 194, 195, 196, 197, 198, 199, 200, 201, 202, 203, 204, 205, 206, 207, 208, 209, 210, 211, 212, 213, 214, 215, 216, 217, 218, 219, 220, 221, 222, 223, 224, 225, 226, 227, 228, 229, 230, 231, 232, 233, 234, 235, 236, 237, 238, 239, 240, 241, 242, 243, 244, 245, 246, 247, 248, 249, 250, 251, 252, 253, 254, 255, 256, 257, 258, 259, 260, 261, 262, 263, 264],
      "AcquisitionTime": ["124729.562500", "124730.562500", "124731.562500", "124732.562500", "124733.562500", "124734.562500", "124735.562500", "124736.562500", "124737.562500", "124738.562500", "124739.562500", "124740.562500", "124741.562500", "124742.562500", "124743.562500", "124744.562500", "124745.562500", "124746.562500", "124747.562500", "124748.562500", "124749.562500", "124750.562500", "124751.562500", "124752.562500", "124753.562500", "124754.562500", "124755.562500", "124756.562500", "124757.562500", "124758.562500", "124759.562500", "124800.562500", "124801.562500", "124802.562500", "124803.562500", "124804.562500", "124805.562500", "124806.562500", "124807.562500", "124808.562500", "124809.562500", "124810.562500", "124811.562500", "124812.562500", "124813.562500", "124814.562500", "124815.562500", "124816.562500", "124817.562500", "124818.562500", "124819.562500", "124820.562500", "124821.562500", "124822.562500", "124823.562500", "124824.562500", "124825.562500", "124826.562500", "124827.562500", "124828.562500", "124829.562500", "124830.562500", "124831.562500", "124832.562500", "124833.562500", "124834.562500", "124835.562500", "124836.562500", "124837.562500", "124838.562500", "124839.562500", "124840.562500", "124841.562500", "124842.562500", "124843.562500", "124844.562500", "124845.562500", "124846.562500", "124847.562500", "124848.562500", "124849.562500", "124850.562500", "124851.562500", "124852.562500", "124853.562500", "124854.562500", "124855.562500", "124856.562500", "124857.562500", "124858.562500", "124859.562500", "124900.562500", "124901.562500", "124902.562500", "124903.562500", "124904.562500", "124905.562500", "124906.562500", "124907.562500", "124908.562500", "124909.562500", "124910.562500", "124911.562500", "124912.562500", "124913.562500", "124914.562500", "124915.562500", "124916.562500", "124917.562500", "124918.562500", "124919.562500", "124920.562500", "124921.562500", "124922.562500", "124923.562500", "124924.562500", "124925.562500", "124926.562500", "124927.562500", "124928.562500", "124929.562500", "124930.562500", "124931.562500", "124932.562500", "124933.562500", "124934.562500", "124935.562500", "124936.562500", "124937.562500", "124938.562500", "124939.562500", "124940.562500", "124941.562500", "124942.562500", "124943.562500", "124944.562500", "124945.562500", "124946.562500", "124947.562500", "124948.562500", "124949.562500", "124950.562500", "124951.562500", "124952.562500", "124953.562500", "124954.562500", "124955.562500", "124956.562500", "124957.562500", "124958.562500", "124959.562500", "125000.562500", "125001.562500", "125002.562500", "125003.562500", "125004.562500", "125005.562500", "125006.562500", "125007.562500", "125008.562500", "125009.562500", "125010.562500", "125011.562500", "125012.562500", "125013.562500", "125014.562500", "125015.562500", "125016.562500", "125017.562500", "125018.562500", "125019.562500", "125020.562500", "125021.562500", "125022.562500", "125023.562500", "125024.562500", "125025.562500", "125026.562500", "125027.562500", "125028.562500", "125029.562500", "125030.562500", "125031.562500", "125032.562500", "125033.562500", "125034.562500", "125035.562500", "125036.562500", "125037.562500", "125038.562500", "125039.562500", "125040.562500", "125041.562500", "125042.562500", "125043.562500", "125044.562500", "125045.562500", "125046.562500", "125047.562500", "125048.562500", "125049.562500", "125050.562500", "125051.562500", "125052.562500", "125053.562500", "125054.562500", "125055.562500", "125056.562500", "125057.562500", "125058.562500", "125059.562500", "125100.562500", "125101.562500", "125102.562500", "125103.562500", "125104.562500", "125105.562500", "125106.562500", "125107.562500", "125108.562500", "125109.562500", "125110.562500", "125111.562500", "125112.562500", "125113.562500", "125114.562500", "125115.562500", "125116.562500", "125117.562500", "125118.562500", "125119.562500", "125120.562500", "125121.562500", "125122.562500", "125123.562500", "125124.562500", "125125.562500", "125126.562500", "125127.562500", "125128.562500", "125129.562500", "125130.562500", "125131.562500", "125132.562500", "125133.562500", "125134.562500", "125135.562500", "125136.562500", "125137.562500", "125138.562500", "125139.562500", "125140.562500", "125141.562500", "125142.562500", "125143.562500", "125144.562500", "125145.562500", "125146.562500", "125147.562500", "125148.562500", "125149.562500", "125150.562500", "125151.562500", "125152.562500"],
      "ContentTime": ["124819.974000", "124819.977000", "124824.923000", "124824.926000", "124824.929000", "124824.932000", "124824.935000", "124824.937000", "124824.941000", "124829.923000", "124829.933000", "124829.936000", "124829.938000", "124829.941000", "124829.944000", "124829.947000", "124834.923000", "124834.926000", "124834.929000", "124834.932000", "124834.935000", "124834.938000", "124834.940000", "124839.923000", "124839.926000", "124839.929000", "124839.932000", "124839.935000", "124839.938000", "124839.941000", "124844.923000", "124844.926000", "124844.929000", "124844.932000", "124844.935000", "124844.938000", "124844.941000", "124849.923000", "124849.926000", "124849.929000", "124849.932000", "124849.935000", "124849.938000", "124849.941000", "124854.923000", "124854.926000", "124854.929000", "124854.932000", "124854.935000", "124854.938000", "124854.951000", "124854.954000", "124859.923000", "124859.926000", "124859.929000", "124859.932000", "124859.935000", "124859.937000", "124859.940000", "124904.923000", "124904.926000", "124904.929000", "124904.932000", "124904.935000", "124904.938000", "124904.941000", "124909.923000", "124909.926000", "124909.929000", "124909.932000", "124909.935000", "124909.938000", "124909.941000", "124914.923000", "124914.926000", "124914.929000", "124914.932000", "124914.935000", "124914.938000", "124914.940000", "124919.923000", "124919.926000", "124919.929000", "124919.932000", "124919.935000", "124919.938000", "124919.941000", "124924.923000", "124924.926000", "124924.929000", "124924.932000", "124924.935000", "124924.938000", "124924.941000", "124929.923000", "124929.926000", "124929.929000", "124929.932000", "124929.935000", "124929.938000", "124929.941000", "124934.923000", "124934.926000", "124934.929000", "124934.932000", "124934.935000", "124934.938000", "124934.941000", "124939.923000", "124939.926000", "124939.929000", "124939.932000", "124939.935000", "124939.938000", "124939.941000", "124944.923000", "124944.926000", "124944.929000", "124944.932000", "124944.935000", "124944.938000", "124944.941000", "124949.923000", "124949.926000", "124949.929000", "124949.932000", "124949.935000", "124949.938000", "124949.941000", "124954.923000", "124954.926000", "124954.929000", "124954.932000", "124954.935000", "124954.938000", "124954.941000", "124959.923000", "124959.926000", "124959.929000", "124959.932000", "124959.935000", "124959.938000", "124959.940000", "125004.923000", "125004.926000", "125004.929000", "125004.932000", "125004.935000", "125004.938000", "125004.941000", "125009.923000", "125009.926000", "125009.929000", "125009.932000", "125009.935000", "125009.938000", "125009.941000", "125014.923000", "125014.926000", "125014.929000", "125014.932000", "125014.935000", "125014.938000", "125014.940000", "125019.923000", "125019.926000", "125019.929000", "125019.932000", "125019.935000", "125024.923000", "125024.926000", "125024.929000", "125024.932000", "125024.935000", "125029.923000", "125029.926000", "125029.929000", "125029.932000", "125029.935000", "125034.923000", "125034.926000", "125034.929000", "125034.932000", "125034.935000", "125039.923000", "125039.926000", "125039.929000", "125039.932000", "125039.935000", "125044.923000", "125044.926000", "125044.929000", "125044.942000", "125044.945000", "125049.923000", "125049.926000", "125049.929000", "125049.932000", "125049.935000", "125054.923000", "125054.926000", "125054.929000", "125054.932000", "125054.935000", "125059.923000", "125059.926000", "125059.929000", "125059.932000", "125059.935000", "125104.923000", "125104.926000", "125104.929000", "125104.932000", "125104.935000", "125109.923000", "125109.926000", "125109.929000", "125109.932000", "125109.935000", "125114.923000", "125114.926000", "125114.929000", "125114.932000", "125114.935000", "125119.923000", "125119.926000", "125119.929000", "125119.932000", "125119.935000", "125124.923000", "125124.926000", "125124.929000", "125124.932000", "125124.935000", "125129.923000", "125129.926000", "125129.929000", "125129.932000", "125129.935000", "125134.923000", "125134.926000", "125134.929000", "125134.932000", "125134.937000", "125139.923000", "125139.926000", "125139.929000", "125139.932000", "125139.935000", "125144.923000", "125144.926000", "125144.929000", "125144.932000", "125144.935000", "125149.923000", "125149.926000", "125149.929000", "125149.932000", "125149.935000", "125154.288000", "125154.291000", "125154.294000", "125154.297000", "125154.300000"],
      "InstanceCreationTime": ["124819.974000", "124819.977000", "124824.923000", "124824.926000", "124824.929000", "124824.932000", "124824.935000", "124824.937000", "124824.941000", "124829.923000", "124829.933000", "124829.936000", "124829.938000", "124829.941000", "124829.944000", "124829.947000", "124834.923000", "124834.926000", "124834.929000", "124834.932000", "124834.935000", "124834.938000", "124834.940000", "124839.923000", "124839.926000", "124839.929000", "124839.932000", "124839.935000", "124839.938000", "124839.941000", "124844.923000", "124844.926000", "124844.929000", "124844.932000", "124844.935000", "124844.938000", "124844.941000", "124849.923000", "124849.926000", "124849.929000", "124849.932000", "124849.935000", "124849.938000", "124849.941000", "124854.923000", "124854.926000", "124854.929000", "124854.932000", "124854.935000", "124854.938000", "124854.951000", "124854.954000", "124859.923000", "124859.926000", "124859.929000", "124859.932000", "124859.935000", "124859.937000", "124859.940000", "124904.923000", "124904.926000", "124904.929000", "124904.932000", "124904.935000", "124904.938000", "124904.941000", "124909.923000", "124909.926000", "124909.929000", "124909.932000", "124909.935000", "124909.938000", "124909.941000", "124914.923000", "124914.926000", "124914.929000", "124914.932000", "124914.935000", "124914.938000", "124914.940000", "124919.923000", "124919.926000", "124919.929000", "124919.932000", "124919.935000", "124919.938000", "124919.941000", "124924.923000", "124924.926000", "124924.929000", "124924.932000", "124924.935000", "124924.938000", "124924.941000", "124929.923000", "124929.926000", "124929.929000", "124929.932000", "124929.935000", "124929.938000", "124929.941000", "124934.923000", "124934.926000", "124934.929000", "124934.932000", "124934.935000", "124934.938000", "124934.941000", "124939.923000", "124939.926000", "124939.929000", "124939.932000", "124939.935000", "124939.938000", "124939.941000", "124944.923000", "124944.926000", "124944.929000", "124944.932000", "124944.935000", "124944.938000", "124944.941000", "124949.923000", "124949.926000", "124949.929000", "124949.932000", "124949.935000", "124949.938000", "124949.941000", "124954.923000", "124954.926000", "124954.929000", "124954.932000", "124954.935000", "124954.938000", "124954.941000", "124959.923000", "124959.926000", "124959.929000", "124959.932000", "124959.935000", "124959.938000", "124959.940000", "125004.923000", "125004.926000", "125004.929000", "125004.932000", "125004.935000", "125004.938000", "125004.941000", "125009.923000", "125009.926000", "125009.929000", "125009.932000", "125009.935000", "125009.938000", "125009.941000", "125014.923000", "125014.926000", "125014.929000", "125014.932000", "125014.935000", "125014.938000", "125014.940000", "125019.923000", "125019.926000", "125019.929000", "125019.932000", "125019.935000", "125024.923000", "125024.926000", "125024.929000", "125024.932000", "125024.935000", "125029.923000", "125029.926000", "125029.929000", "125029.932000", "125029.935000", "125034.923000", "125034.926000", "125034.929000", "125034.932000", "125034.935000", "125039.923000", "125039.926000", "125039.929000", "125039.932000", "125039.935000", "125044.923000", "125044.926000", "125044.929000", "125044.942000", "125044.945000", "125049.923000", "125049.926000", "125049.929000", "125049.932000", "125049.935000", "125054.923000", "125054.926000", "125054.929000", "125054.932000", "125054.935000", "125059.923000", "125059.926000", "125059.929000", "125059.932000", "125059.935000", "125104.923000", "125104.926000", "125104.929000", "125104.932000", "125104.935000", "125109.923000", "125109.926000", "125109.929000", "125109.932000", "125109.935000", "125114.923000", "125114.926000", "125114.929000", "125114.932000", "125114.935000", "125119.923000", "125119.926000", "125119.929000", "125119.932000", "125119.935000", "125124.923000", "125124.926000", "125124.929000", "125124.932000", "125124.935000", "125129.923000", "125129.926000", "125129.929000", "125129.932000", "125129.935000", "125134.923000", "125134.926000", "125134.929000", "125134.932000", "125134.937000", "125139.923000", "125139.926000", "125139.929000", "125139.932000", "125139.935000", "125144.923000", "125144.926000", "125144.929000", "125144.932000", "125144.935000", "125149.923000", "125149.926000", "125149.929000", "125149.932000", "125149.935000", "125154.288000", "125154.291000", "125154.294000", "125154.297000", "125154.300000"],
      "InstanceNumber": [1, 2, 3, 4, 5, 6, 7, 8, 9, 10, 11, 12, 13, 14, 15, 16, 17, 18, 19, 20, 21, 22, 23, 24, 25, 26, 27, 28, 29, 30, 31, 32, 33, 34, 35, 36, 37, 38, 39, 40, 41, 42, 43, 44, 45, 46, 47, 48, 49, 50, 51, 52, 53, 54, 55, 56, 57, 58, 59, 60, 61, 62, 63, 64, 65, 66, 67, 68, 69, 70, 71, 72, 73, 74, 75, 76, 77, 78, 79, 80, 81, 82, 83, 84, 85, 86, 87, 88, 89, 90, 91, 92, 93, 94, 95, 96, 97, 98, 99, 100, 101, 102, 103, 104, 105, 106, 107, 108, 109, 110, 111, 112, 113, 114, 115, 116, 117, 118, 119, 120, 121, 122, 123, 124, 125, 126, 127, 128, 129, 130, 131, 132, 133, 134, 135, 136, 137, 138, 139, 140, 141, 142, 143, 144, 145, 146, 147, 148, 149, 150, 151, 152, 153, 154, 155, 156, 157, 158, 159, 160, 161, 162, 163, 164, 165, 166, 167, 168, 169, 170, 171, 172, 173, 174, 175, 176, 177, 178, 179, 180, 181, 182, 183, 184, 185, 186, 187, 188, 189, 190, 191, 192, 193, 194, 195, 196, 197, 198, 199, 200, 201, 202, 203, 204, 205, 206, 207, 208, 209, 210, 211, 212, 213, 214, 215, 216, 217, 218, 219, 220, 221, 222, 223, 224, 225, 226, 227, 228, 229, 230, 231, 232, 233, 234, 235, 236, 237, 238, 239, 240, 241, 242, 243, 244, 245, 246, 247, 248, 249, 250, 251, 252, 253, 254, 255, 256, 257, 258, 259, 260, 261, 262, 263, 264],
      "LargestImagePixelValue": [31822, 30834, 30063, 29959, 30125, 29911, 29149, 29699, 29691, 29830, 29344, 29446, 29674, 29754, 29374, 29816, 29669, 29736, 29579, 29739, 28861, 28792, 29298, 29614, 28981, 29202, 29153, 29201, 28765, 28642, 29647, 29580, 29505, 29638, 29441, 29904, 29303, 28903, 29061, 28935, 28733, 29133, 29285, 29874, 28739, 29111, 29512, 29192, 28672, 29038, 29484, 28886, 28818, 29365, 29483, 28685, 28793, 29189, 28680, 28976, 28785, 29405, 29603, 29527, 28761, 29603, 29136, 29518, 29611, 29823, 29191, 29289, 29425, 28946, 29544, 29498, 29282, 28846, 29155, 29809, 28613, 28940, 28934, 29817, 28883, 28846, 29084, 29238, 29119, 29090, 29174, 29362, 28875, 29352, 29418, 29624, 29524, 29040, 29628, 29386, 28788, 28673, 29160, 29318, 29324, 28917, 29261, 28711, 28720, 29082, 29115, 28628, 28850, 29108, 28721, 29150, 28622, 29014, 28701, 29018, 28667, 29517, 29083, 29108, 29067, 29369, 28660, 28437, 29491, 29351, 28513, 28657, 29148, 29513, 28416, 28539, 28739, 28965, 28907, 28618, 28981, 29081, 28791, 28566, 28996, 28838, 28469, 28393, 28872, 28604, 28610, 28679, 28971, 29140, 28782, 29391, 29231, 29114, 28973, 29016, 29634, 28765, 29242, 30463, 29688, 29644, 29807, 29684, 28981, 28737, 28972, 29861, 29348, 28749, 29043, 28711, 29181, 29335, 28916, 28742, 28969, 29470, 29094, 28772, 28967, 29504, 29026, 28452, 28718, 28906, 28899, 28489, 28793, 28937, 29637, 29257, 29419, 28646, 28847, 28795, 29129, 28892, 28572, 28808, 28990, 28642, 28793, 29042, 28819, 28648, 28997, 29081, 28708, 28968, 29050, 28605, 28528, 28789, 29370, 29137, 29027, 28781, 29233, 28752, 29007, 28911, 29180, 29617, 29449, 28515, 28896, 29300, 28713, 28456, 29116, 29714, 28421, 28276, 28918, 28784, 29019, 28873, 28890, 28824, 28616, 28720, 28962, 28595, 28896, 28777, 28915, 28720, 28493, 28352, 28550, 28847, 29306, 28522, 28703, 28539, 28528, 28489, 28370, 28807],
      "WindowCenter": [9591.0, 9555.0, 9539.0, 9540.0, 9537.0, 9526.0, 9520.0, 9517.0, 9514.0, 9515.0, 9519.0, 9516.0, 9513.0, 9504.0, 9492.0, 9492.0, 9479.0, 9490.0, 9487.0, 9494.0, 9493.0, 9504.0, 9516.0, 9524.0, 9504.0, 9510.0, 9500.0, 9500.0, 9494.0, 9502.0, 9522.0, 9525.0, 9533.0, 9548.0, 9545.0, 9548.0, 9528.0, 9514.0, 9511.0, 9498.0, 9495.0, 9502.0, 9516.0, 9522.0, 9512.0, 9520.0, 9519.0, 9513.0, 9512.0, 9520.0, 9520.0, 9508.0, 9509.0, 9520.0, 9519.0, 9507.0, 9499.0, 9501.0, 9493.0, 9500.0, 9504.0, 9515.0, 9521.0, 9517.0, 9508.0, 9523.0, 9510.0, 9508.0, 9514.0, 9512.0, 9510.0, 9532.0, 9535.0, 9518.0, 9528.0, 9529.0, 9525.0, 9500.0, 9503.0, 9504.0, 9472.0, 9475.0, 9477.0, 9502.0, 9485.0, 9487.0, 9501.0, 9508.0, 9501.0, 9493.0, 9494.0, 9500.0, 9495.0, 9500.0, 9512.0, 9513.0, 9499.0, 9499.0, 9510.0, 9504.0, 9495.0, 9519.0, 9527.0, 9534.0, 9533.0, 9522.0, 9513.0, 9497.0, 9498.0, 9520.0, 9518.0, 9501.0, 9505.0, 9510.0, 9494.0, 9493.0, 9490.0, 9501.0, 9488.0, 9501.0, 9505.0, 9526.0, 9513.0, 9513.0, 9513.0, 9518.0, 9507.0, 9499.0, 9512.0, 9518.0, 9495.0, 9508.0, 9521.0, 9518.0, 9500.0, 9503.0, 9506.0, 9504.0, 9497.0, 9500.0, 9510.0, 9501.0, 9487.0, 9482.0, 9483.0, 9474.0, 9469.0, 9485.0, 9484.0, 9480.0, 9489.0, 9495.0, 9492.0, 9484.0, 9470.0, 9487.0, 9482.0, 9490.0, 9493.0, 9510.0, 9533.0, 9532.0, 9542.0, 9565.0, 9563.0, 9563.0, 9556.0, 9539.0, 9517.0, 9510.0, 9515.0, 9524.0, 9519.0, 9508.0, 9513.0, 9499.0, 9506.0, 9519.0, 9516.0, 9516.0, 9529.0, 9529.0, 9528.0, 9518.0, 9522.0, 9526.0, 9512.0, 9493.0, 9500.0, 9499.0, 9505.0, 9501.0, 9515.0, 9509.0, 9524.0, 9514.0, 9526.0, 9508.0, 9506.0, 9508.0, 9506.0, 9498.0, 9483.0, 9489.0, 9486.0, 9479.0, 9479.0, 9485.0, 9486.0, 9503.0, 9512.0, 9512.0, 9505.0, 9505.0, 9495.0, 9475.0, 9474.0, 9487.0, 9492.0, 9491.0, 9494.0, 9503.0, 9513.0, 9515.0, 9520.0, 9522.0, 9523.0, 9532.0, 9527.0, 9509.0, 9507.0, 9524.0, 9514.0, 9519.0, 9531.0, 9540.0, 9507.0, 9502.0, 9506.0, 9488.0, 9491.0, 9478.0, 9477.0, 9471.0, 9469.0, 9477.0, 9477.0, 9463.0, 9477.0, 9485.0, 9488.0, 9495.0, 9498.0, 9497.0, 9488.0, 9485.0, 9496.0, 9479.0, 9475.0, 9460.0, 9458.0, 9461.0, 9460.0, 9466.0],
      "WindowWidth": [20536.0, 20458.0, 20427.0, 20427.0, 20421.0, 20401.0, 20389.0, 20379.0, 20369.0, 20374.0, 20385.0, 20376.0, 20364.0, 20345.0, 20322.0, 20318.0, 20291.0, 20311.0, 20312.0, 20327.0, 20333.0, 20358.0, 20381.0, 20395.0, 20358.0, 20365.0, 20345.0, 20343.0, 20336.0, 20354.0, 20394.0, 20403.0, 20422.0, 20453.0, 20450.0, 20451.0, 20409.0, 20377.0, 20366.0, 20341.0, 20335.0, 20351.0, 20378.0, 20388.0, 20371.0, 20389.0, 20386.0, 20375.0, 20376.0, 20392.0, 20390.0, 20371.0, 20374.0, 20393.0, 20390.0, 20369.0, 20351.0, 20346.0, 20329.0, 20346.0, 20358.0, 20378.0, 20388.0, 20383.0, 20372.0, 20394.0, 20370.0, 20364.0, 20374.0, 20370.0, 20371.0, 20418.0, 20427.0, 20396.0, 20411.0, 20413.0, 20397.0, 20349.0, 20351.0, 20344.0, 20282.0, 20288.0, 20296.0, 20342.0, 20316.0, 20322.0, 20349.0, 20365.0, 20348.0, 20332.0, 20332.0, 20344.0, 20337.0, 20346.0, 20370.0, 20368.0, 20340.0, 20341.0, 20358.0, 20346.0, 20338.0, 20388.0, 20402.0, 20415.0, 20415.0, 20397.0, 20376.0, 20342.0, 20349.0, 20392.0, 20386.0, 20352.0, 20355.0, 20359.0, 20325.0, 20325.0, 20325.0, 20345.0, 20319.0, 20347.0, 20363.0, 20403.0, 20378.0, 20379.0, 20379.0, 20388.0, 20369.0, 20353.0, 20375.0, 20385.0, 20345.0, 20374.0, 20399.0, 20387.0, 20353.0, 20361.0, 20363.0, 20352.0, 20340.0, 20349.0, 20363.0, 20340.0, 20315.0, 20305.0, 20301.0, 20277.0, 20276.0, 20312.0, 20312.0, 20305.0, 20326.0, 20336.0, 20325.0, 20305.0, 20279.0, 20311.0, 20303.0, 20318.0, 20328.0, 20366.0, 20412.0, 20419.0, 20443.0, 20484.0, 20484.0, 20488.0, 20470.0, 20430.0, 20385.0, 20373.0, 20380.0, 20391.0, 20386.0, 20369.0, 20374.0, 20348.0, 20364.0, 20391.0, 20388.0, 20388.0, 20413.0, 20409.0, 20404.0, 20391.0, 20397.0, 20398.0, 20371.0, 20338.0, 20351.0, 20350.0, 20360.0, 20357.0, 20385.0, 20371.0, 20392.0, 20377.0, 20401.0, 20365.0, 20360.0, 20368.0, 20361.0, 20338.0, 20309.0, 20322.0, 20310.0, 20298.0, 20296.0, 20307.0, 20313.0, 20352.0, 20371.0, 20368.0, 20355.0, 20354.0, 20332.0, 20294.0, 20295.0, 20318.0, 20329.0, 20327.0, 20335.0, 20360.0, 20383.0, 20388.0, 20395.0, 20401.0, 20401.0, 20414.0, 20406.0, 20375.0, 20366.0, 20394.0, 20382.0, 20397.0, 20419.0, 20429.0, 20366.0, 20355.0, 20357.0, 20317.0, 20317.0, 20295.0, 20292.0, 20280.0, 20278.0, 20294.0, 20295.0, 20268.0, 20295.0, 20314.0, 20326.0, 20341.0, 20346.0, 20342.0, 20319.0, 20308.0, 20323.0, 20295.0, 20282.0, 20249.0, 20242.0, 20252.0, 20252.0, 20262.0]
    },
    "slices": {}
  }
}