{
  "AcquisitionMatrixPE": 104,
  "AcquisitionNumber": 1,
  "AcquisitionTime": "12:12:56.630000",
  "BandwidthPerPixelPhaseEncode": 16.578,
  "BaseResolution": 104,
  "BodyPartExamined": "BRAIN",
  "ConsistencyInfo": "N4_VE11C_LATEST_20160120",
  "ConversionSoftware": "dcm2niix",
  "ConversionSoftwareVersion": "v1.0.20190410  GCC6.3.0",
  "DerivedVendorReportedEchoSpacing": 0.000580009,
  "DeviceSerialNumber": "166018",
  "DwellTime": 2.1e-06,
  "EchoTime": 0.037,
  "EchoTrainLength": 104,
  "EffectiveEchoSpacing": 0.000580009,
  "FlipAngle": 68,
  "ImageComments": "Unaliased_MB6_PE3_LB",
  "ImageOrientationPatientDICOM": [0.999945, -4.20061e-05, 0.010477, 0.00226878, 0.977133, -0.212619],
  "ImageType": [
    "ORIGINAL",
    "PRIMARY",
    "M",
    "MB",
    "ND",
    "MOSAIC"
],
  "ImagingFrequency": 123.191,
  "InPlanePhaseEncodingDirectionDICOM": "COL",
  "InstitutionAddress": "Washington_Place_6_NYC_NYC_US_10003",
  "InstitutionName": "NYU_Center_for_Brain_Imaging",
  "InstitutionalDepartmentName": "Department",
  "MRAcquisitionType": "2D",
  "MagneticFieldStrength": 3,
  "Manufacturer": "Siemens",
  "ManufacturersModelName": "Prisma",
  "Modality": "MR",
  "MultibandAccelerationFactor": 6,
  "PartialFourier": 1,
  "PatientPosition": "HFS",
  "PercentPhaseFOV": 100,
  "PhaseEncodingDirection": "j",
  "PhaseEncodingSteps": 104,
  "PhaseResolution": 1,
  "PixelBandwidth": 2290,
  "ProcedureStepDescription": "Investigators_Winawer",
  "ProtocolName": "task-sfprescaled_mbepi_s6_2mm_66sl_PA_TR1.0-",
  "PulseSequenceDetails": "%CustomerSeq%_cmrr_mbep2d_bold",
  "ReceiveCoilActiveElements": "HC1-7",
  "ReceiveCoilName": "HeadNeck_64",
  "ReconMatrixPE": 104,
  "RepetitionTime": 1,
  "SAR": 0.0706464,
  "ScanOptions": "FS",
  "ScanningSequence": "EP",
  "SequenceName": "epfid2d1_104",
  "SequenceVariant": "SK_SS",
  "SeriesDescription": "task-sfprescaled_mbepi_s6_2mm_66sl_PA_TR1.0-",
  "SeriesNumber": 12,
  "ShimSetting": [283, -12618, -8461, 445, 86, -59, -129, -57],
  "SliceThickness": 2,
  "SliceTiming": [0, 0.535, 0.09, 0.625, 0.18, 0.7125, 0.2675, 0.8025, 0.3575, 0.8925, 0.4475, 0, 0.535, 0.09, 0.625, 0.18, 0.7125, 0.2675, 0.8025, 0.3575, 0.8925, 0.4475, 0, 0.535, 0.09, 0.625, 0.18, 0.7125, 0.2675, 0.8025, 0.3575, 0.8925, 0.4475, 0, 0.535, 0.09, 0.625, 0.18, 0.7125, 0.2675, 0.8025, 0.3575, 0.8925, 0.4475, 0, 0.535, 0.09, 0.625, 0.18, 0.7125, 0.2675, 0.8025, 0.3575, 0.8925, 0.4475, 0, 0.535, 0.09, 0.625, 0.18, 0.7125, 0.2675, 0.8025, 0.3575, 0.8925, 0.4475],
  "SoftwareVersions": "syngo_MR_E11",
  "SpacingBetweenSlices": 2,
  "StationName": "AWP166018",
  "TaskName": "sfprescaled",
  "TotalReadoutTime": 0.0597409,
  "TxRefAmp": 215.643,
  "WipMemBlock": "34fe9896-9353-452e-b995-7f6b7128c97a||Sequence: R016 ve11c/master r/8780670; Nov 27 2017 15:05:12 by eja",
  "dcmmeta_affine": [
    [-1.9998902082443237, 0.004537566099315882, 0.02045702561736107, 110.97503662109375],
    [8.4012295701541e-05, 1.9542652368545532, -0.42526179552078247, -81.9362564086914],
    [0.020954053848981857, 0.42523759603500366, 1.954158067703247, -73.46516418457031],
    [0.0, 0.0, 0.0, 1.0]
],
  "dcmmeta_reorient_transform": [
    [0.0, -1.0, 0.0, 103.0],
    [1.0, 0.0, 0.0, 0.0],
    [0.0, 0.0, 1.0, 0.0],
    [0.0, 0.0, 0.0, 1.0]
],
  "dcmmeta_shape": [104, 104, 66, 264],
  "dcmmeta_slice_dim": 2,
  "dcmmeta_version": 0.6,
  "global": {
    "const": {
      "AccessionNumber": "jtu6jhmb",
  "NumberOfVolumes": 264,
      "AcquisitionMatrix": [104, 0, 0, 104],
      "AngioFlag": "N",
      "BitsAllocated": 16,
      "BitsStored": 16,
      "BodyPartExamined": "BRAIN",
      "Columns": 936,
      "EchoNumbers": 1,
      "EchoTime": 37.0,
      "EchoTrainLength": 104,
      "FlipAngle": 68.0,
      "HighBit": 15,
      "ImageOrientationPatient": [0.99994511356325, -4.20061489e-05, 0.01047702708094, 0.00226878296554, 0.97713259133393, -0.212618794035],
      "ImagePositionPatient": [-945.28436869193, -932.29242349066, 138.51625926815],
      "ImageType": [
        "ORIGINAL",
        "PRIMARY",
        "M",
        "MB",
        "ND",
        "MOSAIC"
],
      "ImagedNucleus": "1H",
      "ImagingFrequency": 123.191219,
      "InPlanePhaseEncodingDirection": "COL",
      "MRAcquisitionType": "2D",
      "MagneticFieldStrength": 3.0,
      "Manufacturer": "SIEMENS",
      "ManufacturerModelName": "Prisma",
      "Modality": "MR",
      "NumberOfAverages": 1.0,
      "NumberOfPhaseEncodingSteps": 104,
      "PercentPhaseFieldOfView": 100.0,
      "PercentSampling": 100.0,
      "PerformedProcedureStepStartTime": "115204.018000",
      "PhotometricInterpretation": "MONOCHROME2",
      "PixelBandwidth": 2290.0,
      "PixelRepresentation": 0,
      "PixelSpacing": [2.0, 2.0],
      "ProtocolName": "task-sfprescaled_mbepi_s6_2mm_66sl_PA_TR1.0-",
      "RepetitionTime": 1000.0,
      "Rows": 936,
      "SAR": 0.07064645224032,
      "SamplesPerPixel": 1,
      "ScanOptions": "FS",
      "ScanningSequence": "EP",
      "SequenceName": "epfid2d1_104",
      "SequenceVariant": [
        "SK",
        "SS"
],
      "SeriesDescription": "task-sfprescaled_mbepi_s6_2mm_66sl_PA_TR1.0-",
      "SeriesNumber": 12,
      "SeriesTime": "121346.758000",
      "SliceLocation": -53.223982195688,
      "SliceThickness": 2.0,
      "SmallestImagePixelValue": 0,
      "SoftwareVersions": "syngo MR E11",
      "SpacingBetweenSlices": 1.9999999725963,
      "SpecificCharacterSet": "ISO_IR 100",
      "StudyID": "1",
      "StudyTime": "115203.950000",
      "TransmitCoilName": "Body",
      "VariableFlipAngleFlag": "N",
      "WindowCenterWidthExplanation": "Algo1",
      "dBdt": 0.0},
    "slices": {}
  },
  "time": {
    "samples": {
      "AcquisitionNumber": [1, 2, 3, 4, 5, 6, 7, 8, 9, 10, 11, 12, 13, 14, 15, 16, 17, 18, 19, 20, 21, 22, 23, 24, 25, 26, 27, 28, 29, 30, 31, 32, 33, 34, 35, 36, 37, 38, 39, 40, 41, 42, 43, 44, 45, 46, 47, 48, 49, 50, 51, 52, 53, 54, 55, 56, 57, 58, 59, 60, 61, 62, 63, 64, 65, 66, 67, 68, 69, 70, 71, 72, 73, 74, 75, 76, 77, 78, 79, 80, 81, 82, 83, 84, 85, 86, 87, 88, 89, 90, 91, 92, 93, 94, 95, 96, 97, 98, 99, 100, 101, 102, 103, 104, 105, 106, 107, 108, 109, 110, 111, 112, 113, 114, 115, 116, 117, 118, 119, 120, 121, 122, 123, 124, 125, 126, 127, 128, 129, 130, 131, 132, 133, 134, 135, 136, 137, 138, 139, 140, 141, 142, 143, 144, 145, 146, 147, 148, 149, 150, 151, 152, 153, 154, 155, 156, 157, 158, 159, 160, 161, 162, 163, 164, 165, 166, 167, 168, 169, 170, 171, 172, 173, 174, 175, 176, 177, 178, 179, 180, 181, 182, 183, 184, 185, 186, 187, 188, 189, 190, 191, 192, 193, 194, 195, 196, 197, 198, 199, 200, 201, 202, 203, 204, 205, 206, 207, 208, 209, 210, 211, 212, 213, 214, 215, 216, 217, 218, 219, 220, 221, 222, 223, 224, 225, 226, 227, 228, 229, 230, 231, 232, 233, 234, 235, 236, 237, 238, 239, 240, 241, 242, 243, 244, 245, 246, 247, 248, 249, 250, 251, 252, 253, 254, 255, 256, 257, 258, 259, 260, 261, 262, 263, 264],
      "AcquisitionTime": ["121256.630000", "121257.630000", "121258.630000", "121259.630000", "121300.630000", "121301.630000", "121302.630000", "121303.630000", "121304.630000", "121305.630000", "121306.630000", "121307.630000", "121308.630000", "121309.630000", "121310.630000", "121311.630000", "121312.630000", "121313.630000", "121314.630000", "121315.630000", "121316.630000", "121317.630000", "121318.630000", "121319.630000", "121320.630000", "121321.630000", "121322.630000", "121323.630000", "121324.630000", "121325.630000", "121326.630000", "121327.630000", "121328.630000", "121329.630000", "121330.630000", "121331.630000", "121332.630000", "121333.630000", "121334.630000", "121335.630000", "121336.630000", "121337.630000", "121338.630000", "121339.630000", "121340.630000", "121341.630000", "121342.630000", "121343.630000", "121344.630000", "121345.630000", "121346.630000", "121347.630000", "121348.630000", "121349.630000", "121350.630000", "121351.630000", "121352.630000", "121353.630000", "121354.630000", "121355.630000", "121356.630000", "121357.630000", "121358.630000", "121359.630000", "121400.630000", "121401.630000", "121402.630000", "121403.630000", "121404.630000", "121405.630000", "121406.630000", "121407.630000", "121408.630000", "121409.630000", "121410.630000", "121411.630000", "121412.630000", "121413.630000", "121414.630000", "121415.630000", "121416.630000", "121417.630000", "121418.630000", "121419.630000", "121420.630000", "121421.630000", "121422.630000", "121423.630000", "121424.630000", "121425.630000", "121426.630000", "121427.630000", "121428.630000", "121429.630000", "121430.630000", "121431.630000", "121432.630000", "121433.630000", "121434.630000", "121435.630000", "121436.630000", "121437.630000", "121438.630000", "121439.630000", "121440.630000", "121441.630000", "121442.630000", "121443.630000", "121444.630000", "121445.630000", "121446.630000", "121447.630000", "121448.630000", "121449.630000", "121450.630000", "121451.630000", "121452.630000", "121453.630000", "121454.630000", "121455.630000", "121456.630000", "121457.630000", "121458.630000", "121459.630000", "121500.630000", "121501.630000", "121502.630000", "121503.630000", "121504.630000", "121505.630000", "121506.630000", "121507.630000", "121508.630000", "121509.630000", "121510.630000", "121511.630000", "121512.630000", "121513.630000", "121514.630000", "121515.630000", "121516.630000", "121517.630000", "121518.630000", "121519.630000", "121520.630000", "121521.630000", "121522.630000", "121523.630000", "121524.630000", "121525.630000", "121526.630000", "121527.630000", "121528.630000", "121529.630000", "121530.630000", "121531.630000", "121532.630000", "121533.630000", "121534.630000", "121535.630000", "121536.630000", "121537.630000", "121538.630000", "121539.630000", "121540.630000", "121541.630000", "121542.630000", "121543.630000", "121544.630000", "121545.630000", "121546.630000", "121547.630000", "121548.630000", "121549.630000", "121550.630000", "121551.630000", "121552.630000", "121553.630000", "121554.630000", "121555.630000", "121556.630000", "121557.630000", "121558.630000", "121559.630000", "121600.630000", "121601.630000", "121602.630000", "121603.630000", "121604.630000", "121605.630000", "121606.630000", "121607.630000", "121608.630000", "121609.630000", "121610.630000", "121611.630000", "121612.630000", "121613.630000", "121614.630000", "121615.630000", "121616.630000", "121617.630000", "121618.630000", "121619.630000", "121620.630000", "121621.630000", "121622.630000", "121623.630000", "121624.630000", "121625.630000", "121626.630000", "121627.630000", "121628.630000", "121629.630000", "121630.630000", "121631.630000", "121632.630000", "121633.630000", "121634.630000", "121635.630000", "121636.630000", "121637.630000", "121638.630000", "121639.630000", "121640.630000", "121641.630000", "121642.630000", "121643.630000", "121644.630000", "121645.630000", "121646.630000", "121647.630000", "121648.630000", "121649.630000", "121650.630000", "121651.630000", "121652.630000", "121653.630000", "121654.630000", "121655.630000", "121656.630000", "121657.630000", "121658.630000", "121659.630000", "121700.630000", "121701.630000", "121702.630000", "121703.630000", "121704.630000", "121705.630000", "121706.630000", "121707.630000", "121708.630000", "121709.630000", "121710.630000", "121711.630000", "121712.630000", "121713.630000", "121714.630000", "121715.630000", "121716.630000", "121717.630000", "121718.630000", "121719.630000"],
      "ContentTime": ["121346.761000", "121346.765000", "121351.719000", "121351.722000", "121351.725000", "121351.728000", "121351.731000", "121351.733000", "121351.736000", "121356.718000", "121356.724000", "121356.727000", "121356.735000", "121356.738000", "121356.741000", "121356.744000", "121356.747000", "121401.718000", "121401.730000", "121401.733000", "121401.736000", "121401.739000", "121401.742000", "121401.745000", "121406.719000", "121406.722000", "121406.725000", "121406.728000", "121406.731000", "121406.734000", "121406.736000", "121411.719000", "121411.722000", "121411.725000", "121411.734000", "121411.737000", "121411.740000", "121411.743000", "121416.718000", "121416.721000", "121416.724000", "121416.727000", "121416.730000", "121416.733000", "121416.736000", "121421.718000", "121421.721000", "121421.724000", "121421.727000", "121421.730000", "121421.733000", "121421.735000", "121426.719000", "121426.722000", "121426.725000", "121426.728000", "121426.735000", "121426.738000", "121426.741000", "121431.718000", "121431.721000", "121431.724000", "121431.727000", "121431.730000", "121431.733000", "121431.736000", "121436.718000", "121436.721000", "121436.724000", "121436.727000", "121436.730000", "121436.733000", "121436.736000", "121441.719000", "121441.722000", "121441.725000", "121441.728000", "121441.731000", "121441.733000", "121441.736000", "121446.719000", "121446.722000", "121446.725000", "121446.728000", "121446.731000", "121446.734000", "121446.736000", "121451.718000", "121451.721000", "121451.724000", "121451.727000", "121451.730000", "121451.733000", "121451.736000", "121456.718000", "121456.721000", "121456.724000", "121456.727000", "121456.730000", "121456.733000", "121456.736000", "121501.719000", "121501.722000", "121501.725000", "121501.728000", "121501.731000", "121501.734000", "121501.736000", "121506.718000", "121506.721000", "121506.724000", "121506.727000", "121506.730000", "121506.733000", "121506.736000", "121511.718000", "121511.721000", "121511.724000", "121511.727000", "121511.730000", "121511.733000", "121511.736000", "121516.719000", "121516.722000", "121516.725000", "121516.728000", "121516.731000", "121516.742000", "121516.745000", "121521.719000", "121521.722000", "121521.725000", "121521.728000", "121521.737000", "121521.739000", "121521.742000", "121521.745000", "121526.718000", "121526.721000", "121526.724000", "121526.727000", "121526.730000", "121526.733000", "121526.736000", "121531.718000", "121531.721000", "121531.724000", "121531.727000", "121531.730000", "121531.733000", "121531.736000", "121536.719000", "121536.722000", "121536.725000", "121536.728000", "121536.731000", "121536.734000", "121536.737000", "121541.718000", "121541.721000", "121541.724000", "121541.727000", "121541.730000", "121541.733000", "121546.718000", "121546.721000", "121546.724000", "121546.727000", "121546.730000", "121551.719000", "121551.722000", "121551.725000", "121551.728000", "121551.731000", "121556.719000", "121556.722000", "121556.725000", "121556.728000", "121556.731000", "121601.718000", "121601.721000", "121601.724000", "121601.727000", "121601.730000", "121606.718000", "121606.721000", "121606.724000", "121606.727000", "121606.730000", "121611.719000", "121611.722000", "121611.725000", "121611.742000", "121611.745000", "121616.718000", "121616.721000", "121616.724000", "121616.727000", "121616.730000", "121621.718000", "121621.721000", "121621.724000", "121621.727000", "121621.730000", "121626.719000", "121626.722000", "121626.725000", "121626.728000", "121626.731000", "121631.719000", "121631.722000", "121631.725000", "121631.728000", "121631.731000", "121636.718000", "121636.721000", "121636.724000", "121636.727000", "121636.730000", "121641.718000", "121641.721000", "121641.724000", "121641.727000", "121641.730000", "121646.719000", "121646.722000", "121646.725000", "121646.728000", "121646.743000", "121651.718000", "121651.721000", "121651.724000", "121651.727000", "121651.730000", "121656.718000", "121656.721000", "121656.724000", "121656.727000", "121656.730000", "121701.719000", "121701.722000", "121701.725000", "121701.728000", "121701.731000", "121706.719000", "121706.722000", "121706.725000", "121706.728000", "121706.731000", "121711.718000", "121711.721000", "121711.724000", "121711.727000", "121711.730000", "121716.718000", "121716.721000", "121716.724000", "121716.727000", "121716.730000", "121721.115000", "121721.120000", "121721.124000", "121721.127000", "121721.130000"],
      "InstanceCreationTime": ["121346.761000", "121346.765000", "121351.719000", "121351.722000", "121351.725000", "121351.728000", "121351.731000", "121351.733000", "121351.736000", "121356.718000", "121356.724000", "121356.727000", "121356.735000", "121356.738000", "121356.741000", "121356.744000", "121356.747000", "121401.718000", "121401.730000", "121401.733000", "121401.736000", "121401.739000", "121401.742000", "121401.745000", "121406.719000", "121406.722000", "121406.725000", "121406.728000", "121406.731000", "121406.734000", "121406.736000", "121411.719000", "121411.722000", "121411.725000", "121411.734000", "121411.737000", "121411.740000", "121411.743000", "121416.718000", "121416.721000", "121416.724000", "121416.727000", "121416.730000", "121416.733000", "121416.736000", "121421.718000", "121421.721000", "121421.724000", "121421.727000", "121421.730000", "121421.733000", "121421.735000", "121426.719000", "121426.722000", "121426.725000", "121426.728000", "121426.735000", "121426.738000", "121426.741000", "121431.718000", "121431.721000", "121431.724000", "121431.727000", "121431.730000", "121431.733000", "121431.736000", "121436.718000", "121436.721000", "121436.724000", "121436.727000", "121436.730000", "121436.733000", "121436.736000", "121441.719000", "121441.722000", "121441.725000", "121441.728000", "121441.731000", "121441.733000", "121441.736000", "121446.719000", "121446.722000", "121446.725000", "121446.728000", "121446.731000", "121446.734000", "121446.736000", "121451.718000", "121451.721000", "121451.724000", "121451.727000", "121451.730000", "121451.733000", "121451.736000", "121456.718000", "121456.721000", "121456.724000", "121456.727000", "121456.730000", "121456.733000", "121456.736000", "121501.719000", "121501.722000", "121501.725000", "121501.728000", "121501.731000", "121501.734000", "121501.736000", "121506.718000", "121506.721000", "121506.724000", "121506.727000", "121506.730000", "121506.733000", "121506.736000", "121511.718000", "121511.721000", "121511.724000", "121511.727000", "121511.730000", "121511.733000", "121511.736000", "121516.719000", "121516.722000", "121516.725000", "121516.728000", "121516.731000", "121516.742000", "121516.745000", "121521.719000", "121521.722000", "121521.725000", "121521.728000", "121521.737000", "121521.739000", "121521.742000", "121521.745000", "121526.718000", "121526.721000", "121526.724000", "121526.727000", "121526.730000", "121526.733000", "121526.736000", "121531.718000", "121531.721000", "121531.724000", "121531.727000", "121531.730000", "121531.733000", "121531.736000", "121536.719000", "121536.722000", "121536.725000", "121536.728000", "121536.731000", "121536.734000", "121536.737000", "121541.718000", "121541.721000", "121541.724000", "121541.727000", "121541.730000", "121541.733000", "121546.718000", "121546.721000", "121546.724000", "121546.727000", "121546.730000", "121551.719000", "121551.722000", "121551.725000", "121551.728000", "121551.731000", "121556.719000", "121556.722000", "121556.725000", "121556.728000", "121556.731000", "121601.718000", "121601.721000", "121601.724000", "121601.727000", "121601.730000", "121606.718000", "121606.721000", "121606.724000", "121606.727000", "121606.730000", "121611.719000", "121611.722000", "121611.725000", "121611.742000", "121611.745000", "121616.718000", "121616.721000", "121616.724000", "121616.727000", "121616.730000", "121621.718000", "121621.721000", "121621.724000", "121621.727000", "121621.730000", "121626.719000", "121626.722000", "121626.725000", "121626.728000", "121626.731000", "121631.719000", "121631.722000", "121631.725000", "121631.728000", "121631.731000", "121636.718000", "121636.721000", "121636.724000", "121636.727000", "121636.730000", "121641.718000", "121641.721000", "121641.724000", "121641.727000", "121641.730000", "121646.719000", "121646.722000", "121646.725000", "121646.728000", "121646.743000", "121651.718000", "121651.721000", "121651.724000", "121651.727000", "121651.730000", "121656.718000", "121656.721000", "121656.724000", "121656.727000", "121656.730000", "121701.719000", "121701.722000", "121701.725000", "121701.728000", "121701.731000", "121706.719000", "121706.722000", "121706.725000", "121706.728000", "121706.731000", "121711.718000", "121711.721000", "121711.724000", "121711.727000", "121711.730000", "121716.718000", "121716.721000", "121716.724000", "121716.727000", "121716.730000", "121721.115000", "121721.120000", "121721.124000", "121721.127000", "121721.130000"],
      "InstanceNumber": [1, 2, 3, 4, 5, 6, 7, 8, 9, 10, 11, 12, 13, 14, 15, 16, 17, 18, 19, 20, 21, 22, 23, 24, 25, 26, 27, 28, 29, 30, 31, 32, 33, 34, 35, 36, 37, 38, 39, 40, 41, 42, 43, 44, 45, 46, 47, 48, 49, 50, 51, 52, 53, 54, 55, 56, 57, 58, 59, 60, 61, 62, 63, 64, 65, 66, 67, 68, 69, 70, 71, 72, 73, 74, 75, 76, 77, 78, 79, 80, 81, 82, 83, 84, 85, 86, 87, 88, 89, 90, 91, 92, 93, 94, 95, 96, 97, 98, 99, 100, 101, 102, 103, 104, 105, 106, 107, 108, 109, 110, 111, 112, 113, 114, 115, 116, 117, 118, 119, 120, 121, 122, 123, 124, 125, 126, 127, 128, 129, 130, 131, 132, 133, 134, 135, 136, 137, 138, 139, 140, 141, 142, 143, 144, 145, 146, 147, 148, 149, 150, 151, 152, 153, 154, 155, 156, 157, 158, 159, 160, 161, 162, 163, 164, 165, 166, 167, 168, 169, 170, 171, 172, 173, 174, 175, 176, 177, 178, 179, 180, 181, 182, 183, 184, 185, 186, 187, 188, 189, 190, 191, 192, 193, 194, 195, 196, 197, 198, 199, 200, 201, 202, 203, 204, 205, 206, 207, 208, 209, 210, 211, 212, 213, 214, 215, 216, 217, 218, 219, 220, 221, 222, 223, 224, 225, 226, 227, 228, 229, 230, 231, 232, 233, 234, 235, 236, 237, 238, 239, 240, 241, 242, 243, 244, 245, 246, 247, 248, 249, 250, 251, 252, 253, 254, 255, 256, 257, 258, 259, 260, 261, 262, 263, 264],
      "LargestImagePixelValue": [30594, 30344, 30362, 30128, 29570, 29753, 29578, 29413, 29799, 29940, 29650, 29862, 29276, 28854, 30020, 29548, 29252, 29662, 29803, 29322, 29505, 29902, 29478, 29045, 29929, 29856, 29191, 28931, 29397, 29497, 29263, 29625, 29265, 29735, 29255, 29499, 29368, 29754, 29140, 29669, 29569, 29182, 29020, 29581, 29442, 28885, 29512, 29539, 28958, 28784, 29044, 29553, 28901, 29033, 29314, 29313, 28812, 28781, 29665, 29370, 28926, 28965, 29357, 28780, 28826, 29035, 28697, 29125, 28869, 29604, 29324, 28708, 29503, 28987, 29326, 28888, 28958, 30201, 28707, 28802, 30353, 28616, 28832, 29289, 29348, 29335, 28911, 29338, 28936, 28819, 28950, 29005, 28811, 28367, 28995, 28986, 28644, 28917, 29081, 28734, 29202, 28837, 28893, 28716, 28790, 28841, 28892, 28598, 28685, 29136, 28881, 28813, 28646, 28351, 28758, 28914, 28656, 29369, 28867, 29134, 28441, 29228, 28887, 28941, 29528, 28506, 28561, 28461, 28645, 28594, 28596, 28665, 29010, 28759, 28699, 28679, 28430, 28724, 28549, 28822, 28682, 28780, 28819, 28872, 28404, 28503, 28794, 29095, 28357, 28987, 28707, 28595, 28886, 28671, 28697, 28569, 29521, 28396, 28534, 28481, 28557, 29220, 29013, 29137, 28125, 28494, 29373, 28748, 28405, 28895, 28769, 29324, 28557, 28747, 29258, 29368, 28359, 29448, 28358, 28553, 28472, 28615, 28421, 28685, 28385, 29107, 28199, 28167, 28467, 28852, 28532, 28569, 29007, 28633, 28550, 28630, 28601, 28367, 28441, 29189, 28527, 28290, 28586, 28618, 28502, 28105, 28437, 28348, 28421, 28524, 28700, 28852, 28786, 28840, 28899, 28696, 29090, 28824, 28645, 28996, 28344, 28466, 28568, 28570, 28812, 28927, 28372, 28536, 28945, 28554, 28553, 28637, 29092, 28549, 28978, 28767, 28881, 28577, 28354, 28666, 28917, 29170, 28580, 29646, 28661, 29773, 28930, 28567, 28840, 29961, 29538, 28416, 28542, 28464, 28419, 28301, 28434, 28529, 28490, 28256, 28411, 28740, 28664, 28432],
      "WindowCenter": [9577.0, 9547.0, 9546.0, 9532.0, 9511.0, 9514.0, 9516.0, 9508.0, 9504.0, 9509.0, 9503.0, 9495.0, 9473.0, 9475.0, 9501.0, 9489.0, 9473.0, 9484.0, 9491.0, 9487.0, 9485.0, 9493.0, 9503.0, 9500.0, 9509.0, 9509.0, 9499.0, 9495.0, 9497.0, 9503.0, 9493.0, 9505.0, 9500.0, 9519.0, 9508.0, 9507.0, 9506.0, 9512.0, 9499.0, 9502.0, 9497.0, 9497.0, 9490.0, 9496.0, 9498.0, 9486.0, 9488.0, 9485.0, 9473.0, 9474.0, 9484.0, 9499.0, 9490.0, 9496.0, 9494.0, 9495.0, 9483.0, 9477.0, 9493.0, 9486.0, 9473.0, 9476.0, 9484.0, 9481.0, 9482.0, 9489.0, 9493.0, 9505.0, 9486.0, 9501.0, 9490.0, 9485.0, 9498.0, 9508.0, 9523.0, 9505.0, 9502.0, 9510.0, 9477.0, 9466.0, 9487.0, 9466.0, 9471.0, 9484.0, 9484.0, 9485.0, 9474.0, 9485.0, 9476.0, 9477.0, 9474.0, 9474.0, 9474.0, 9461.0, 9465.0, 9471.0, 9460.0, 9456.0, 9471.0, 9472.0, 9480.0, 9474.0, 9475.0, 9468.0, 9471.0, 9474.0, 9474.0, 9469.0, 9472.0, 9471.0, 9466.0, 9464.0, 9449.0, 9456.0, 9468.0, 9473.0, 9475.0, 9494.0, 9500.0, 9509.0, 9490.0, 9493.0, 9491.0, 9484.0, 9493.0, 9476.0, 9469.0, 9461.0, 9472.0, 9477.0, 9484.0, 9483.0, 9496.0, 9491.0, 9482.0, 9468.0, 9462.0, 9475.0, 9462.0, 9482.0, 9484.0, 9476.0, 9467.0, 9473.0, 9477.0, 9479.0, 9478.0, 9490.0, 9479.0, 9482.0, 9467.0, 9473.0, 9483.0, 9484.0, 9485.0, 9477.0, 9486.0, 9461.0, 9452.0, 9463.0, 9476.0, 9498.0, 9499.0, 9508.0, 9486.0, 9481.0, 9488.0, 9483.0, 9477.0, 9476.0, 9476.0, 9503.0, 9489.0, 9495.0, 9499.0, 9506.0, 9479.0, 9489.0, 9472.0, 9470.0, 9461.0, 9467.0, 9471.0, 9486.0, 9473.0, 9491.0, 9482.0, 9474.0, 9473.0, 9476.0, 9477.0, 9472.0, 9476.0, 9470.0, 9462.0, 9475.0, 9477.0, 9479.0, 9470.0, 9479.0, 9461.0, 9456.0, 9461.0, 9465.0, 9468.0, 9465.0, 9463.0, 9466.0, 9466.0, 9459.0, 9457.0, 9465.0, 9465.0, 9458.0, 9463.0, 9480.0, 9491.0, 9494.0, 9486.0, 9489.0, 9476.0, 9466.0, 9468.0, 9462.0, 9465.0, 9458.0, 9452.0, 9459.0, 9465.0, 9460.0, 9476.0, 9478.0, 9484.0, 9472.0, 9481.0, 9469.0, 9464.0, 9466.0, 9467.0, 9482.0, 9483.0, 9490.0, 9479.0, 9493.0, 9461.0, 9475.0, 9466.0, 9460.0, 9474.0, 9501.0, 9498.0, 9482.0, 9485.0, 9478.0, 9470.0, 9464.0, 9469.0, 9469.0, 9465.0, 9447.0, 9452.0, 9458.0, 9455.0, 9450.0],
      "WindowWidth": [20508.0, 20441.0, 20437.0, 20409.0, 20365.0, 20366.0, 20373.0, 20357.0, 20342.0, 20347.0, 20337.0, 20318.0, 20278.0, 20285.0, 20336.0, 20313.0, 20277.0, 20294.0, 20311.0, 20308.0, 20304.0, 20323.0, 20349.0, 20348.0, 20359.0, 20358.0, 20345.0, 20338.0, 20336.0, 20352.0, 20336.0, 20357.0, 20350.0, 20388.0, 20369.0, 20364.0, 20362.0, 20373.0, 20345.0, 20348.0, 20340.0, 20342.0, 20328.0, 20339.0, 20345.0, 20321.0, 20317.0, 20307.0, 20286.0, 20286.0, 20305.0, 20338.0, 20325.0, 20331.0, 20326.0, 20332.0, 20309.0, 20297.0, 20323.0, 20309.0, 20283.0, 20283.0, 20302.0, 20304.0, 20305.0, 20324.0, 20337.0, 20357.0, 20319.0, 20345.0, 20324.0, 20318.0, 20343.0, 20371.0, 20400.0, 20368.0, 20355.0, 20361.0, 20299.0, 20272.0, 20307.0, 20275.0, 20284.0, 20304.0, 20307.0, 20310.0, 20289.0, 20309.0, 20297.0, 20300.0, 20293.0, 20294.0, 20295.0, 20270.0, 20271.0, 20281.0, 20261.0, 20249.0, 20276.0, 20285.0, 20303.0, 20291.0, 20293.0, 20278.0, 20281.0, 20286.0, 20290.0, 20280.0, 20280.0, 20273.0, 20268.0, 20263.0, 20232.0, 20244.0, 20271.0, 20286.0, 20291.0, 20330.0, 20347.0, 20369.0, 20333.0, 20334.0, 20329.0, 20313.0, 20327.0, 20297.0, 20281.0, 20263.0, 20281.0, 20301.0, 20316.0, 20313.0, 20335.0, 20327.0, 20308.0, 20278.0, 20271.0, 20298.0, 20276.0, 20314.0, 20320.0, 20298.0, 20277.0, 20288.0, 20302.0, 20307.0, 20300.0, 20325.0, 20306.0, 20306.0, 20271.0, 20286.0, 20308.0, 20314.0, 20314.0, 20297.0, 20310.0, 20262.0, 20240.0, 20263.0, 20298.0, 20342.0, 20347.0, 20366.0, 20327.0, 20307.0, 20314.0, 20312.0, 20302.0, 20300.0, 20299.0, 20356.0, 20333.0, 20343.0, 20350.0, 20359.0, 20307.0, 20319.0, 20294.0, 20285.0, 20264.0, 20278.0, 20293.0, 20323.0, 20298.0, 20331.0, 20317.0, 20299.0, 20293.0, 20300.0, 20303.0, 20293.0, 20299.0, 20289.0, 20274.0, 20295.0, 20301.0, 20305.0, 20285.0, 20297.0, 20266.0, 20257.0, 20262.0, 20268.0, 20280.0, 20274.0, 20267.0, 20269.0, 20268.0, 20252.0, 20247.0, 20267.0, 20268.0, 20253.0, 20264.0, 20302.0, 20328.0, 20335.0, 20319.0, 20320.0, 20292.0, 20270.0, 20276.0, 20269.0, 20270.0, 20253.0, 20242.0, 20255.0, 20263.0, 20259.0, 20296.0, 20303.0, 20313.0, 20293.0, 20307.0, 20282.0, 20266.0, 20272.0, 20278.0, 20309.0, 20311.0, 20324.0, 20305.0, 20322.0, 20259.0, 20281.0, 20270.0, 20261.0, 20291.0, 20343.0, 20341.0, 20311.0, 20314.0, 20298.0, 20278.0, 20268.0, 20276.0, 20276.0, 20264.0, 20229.0, 20238.0, 20250.0, 20242.0, 20234.0]
    },
    "slices": {}
  }
}