{
  "AcquisitionMatrixPE": 104,
  "AcquisitionNumber": 1,
  "AcquisitionTime": "11:26:12.525000",
  "BandwidthPerPixelPhaseEncode": 16.578,
  "BaseResolution": 104,
  "BodyPartExamined": "BRAIN",
  "ConsistencyInfo": "N4_VE11C_LATEST_20160120",
  "ConversionSoftware": "dcm2niix",
  "ConversionSoftwareVersion": "v1.0.20190410  GCC6.3.0",
  "DerivedVendorReportedEchoSpacing": 0.000580009,
  "DeviceSerialNumber": "166018",
  "DwellTime": 2.1e-06,
  "EchoTime": 0.037,
  "EchoTrainLength": 104,
  "EffectiveEchoSpacing": 0.000580009,
  "FlipAngle": 68,
  "ImageComments": "Unaliased_MB6_PE3_LB",
  "ImageOrientationPatientDICOM": [0.998853, -0.0388923, 0.0279193, 0.0430869, 0.984487, -0.170083],
  "ImageType": [
    "ORIGINAL",
    "PRIMARY",
    "M",
    "MB",
    "ND",
    "MOSAIC"
],
  "ImagingFrequency": 123.191,
  "InPlanePhaseEncodingDirectionDICOM": "COL",
  "InstitutionAddress": "Washington_Place_6_NYC_NYC_US_10003",
  "InstitutionName": "NYU_-_CBI",
  "InstitutionalDepartmentName": "Department",
  "MRAcquisitionType": "2D",
  "MagneticFieldStrength": 3,
  "Manufacturer": "Siemens",
  "ManufacturersModelName": "Prisma",
  "Modality": "MR",
  "MultibandAccelerationFactor": 6,
  "PartialFourier": 1,
  "PatientPosition": "HFS",
  "PercentPhaseFOV": 100,
  "PhaseEncodingDirection": "j",
  "PhaseEncodingSteps": 104,
  "PhaseResolution": 1,
  "PixelBandwidth": 2290,
  "ProcedureStepDescription": "Investigators_Winawer",
  "ProtocolName": "task-sfprescaled_cmrr_mbepi_s6_2mm_66sl_PA_TR1.0",
  "PulseSequenceDetails": "%CustomerSeq%_cmrr_mbep2d_bold",
  "ReceiveCoilActiveElements": "HC1-7",
  "ReceiveCoilName": "HeadNeck_64",
  "ReconMatrixPE": 104,
  "RepetitionTime": 1,
  "SAR": 0.0728078,
  "ScanOptions": "FS",
  "ScanningSequence": "EP",
  "SequenceName": "epfid2d1_104",
  "SequenceVariant": "SK_SS",
  "SeriesDescription": "task-sfprescaled_cmrr_mbepi_s6_2mm_66sl_PA_TR1.0",
  "SeriesNumber": 24,
  "ShimSetting": [252, -12611, -8531, 327, -46, -7, 35, 0],
  "SliceThickness": 2,
  "SliceTiming": [0, 0.535, 0.09, 0.6225, 0.1775, 0.7125, 0.2675, 0.8025, 0.3575, 0.89, 0.445, 0, 0.535, 0.09, 0.6225, 0.1775, 0.7125, 0.2675, 0.8025, 0.3575, 0.89, 0.445, 0, 0.535, 0.09, 0.6225, 0.1775, 0.7125, 0.2675, 0.8025, 0.3575, 0.89, 0.445, 0, 0.535, 0.09, 0.6225, 0.1775, 0.7125, 0.2675, 0.8025, 0.3575, 0.89, 0.445, 0, 0.535, 0.09, 0.6225, 0.1775, 0.7125, 0.2675, 0.8025, 0.3575, 0.89, 0.445, 0, 0.535, 0.09, 0.6225, 0.1775, 0.7125, 0.2675, 0.8025, 0.3575, 0.89, 0.445],
  "SoftwareVersions": "syngo_MR_E11",
  "SpacingBetweenSlices": 2,
  "StationName": "AWP166018",
  "TaskName": "sfprescaled",
  "TotalReadoutTime": 0.0597409,
  "TxRefAmp": 216.634,
  "WipMemBlock": "0147bbda-03b7-44ae-b501-601ec328b3ca||Sequence: R016 ve11c/master r/8780670; Nov 27 2017 15:05:12 by eja",
  "dcmmeta_affine": [
    [-1.9977065324783325, 0.0861738920211792, 0.04174263775348663, 103.73658752441406],
    [0.07778450101613998, 1.9689745903015137, -0.34218233823776245, -73.6180648803711],
    [0.0558386854827404, 0.34016647934913635, 1.970068335533142, -67.41401672363281],
    [0.0, 0.0, 0.0, 1.0]
],
  "dcmmeta_reorient_transform": [
    [0.0, -1.0, 0.0, 103.0],
    [1.0, 0.0, 0.0, 0.0],
    [0.0, 0.0, 1.0, 0.0],
    [0.0, 0.0, 0.0, 1.0]
],
  "dcmmeta_shape": [104, 104, 66, 264],
  "dcmmeta_slice_dim": 2,
  "dcmmeta_version": 0.6,
  "global": {
    "const": {
      "AccessionNumber": "k5odmn64",
      "AcquisitionMatrix": [104, 0, 0, 104],
      "AngioFlag": "N",
      "BitsAllocated": 16,
      "BitsStored": 16,
      "BodyPartExamined": "BRAIN",
      "Columns": 936,
      "EchoNumbers": 1,
      "EchoTime": 37.0,
      "EchoTrainLength": 104,
      "FlipAngle": 68.0,
      "HighBit": 15,
      "ImageOrientationPatient": [0.99885329406993, -0.0388922510526, 0.02791934336097, 0.04308694691435, 0.98448728111066, -0.1700832394357],
      "ImagePositionPatient": [-979.50677938651, -915.92138287249, 85.903491900522],
      "ImageType": [
        "ORIGINAL",
        "PRIMARY",
        "M",
        "MB",
        "ND",
        "MOSAIC"
],
      "ImagedNucleus": "1H",
      "ImagingFrequency": 123.190755,
      "InPlanePhaseEncodingDirection": "COL",
      "MRAcquisitionType": "2D",
      "MagneticFieldStrength": 3.0,
      "Manufacturer": "SIEMENS",
      "ManufacturerModelName": "Prisma",
      "Modality": "MR",
      "NumberOfAverages": 1.0,
      "NumberOfPhaseEncodingSteps": 104,
      "PercentPhaseFieldOfView": 100.0,
      "PercentSampling": 100.0,
      "PerformedProcedureStepStartTime": "103156.857000",
      "PhotometricInterpretation": "MONOCHROME2",
      "PixelBandwidth": 2290.0,
      "PixelRepresentation": 0,
      "PixelSpacing": [2.0, 2.0],
      "ProtocolName": "task-sfprescaled_cmrr_mbepi_s6_2mm_66sl_PA_TR1.0",
      "RepetitionTime": 1000.0,
      "Rows": 936,
      "SAR": 0.07280780157127,
      "SamplesPerPixel": 1,
      "ScanOptions": "FS",
      "ScanningSequence": "EP",
      "SequenceName": "epfid2d1_104",
      "SequenceVariant": [
        "SK",
        "SS"
],
      "SeriesDescription": "task-sfprescaled_cmrr_mbepi_s6_2mm_66sl_PA_TR1.0",
      "SeriesNumber": 24,
      "SeriesTime": "112721.806000",
      "SliceLocation": -51.644587110569,
      "SliceThickness": 2.0,
      "SmallestImagePixelValue": 0,
      "SoftwareVersions": "syngo MR E11",
      "SpacingBetweenSlices": 2.0000000771805,
      "SpecificCharacterSet": "ISO_IR 100",
      "StudyID": "1",
      "StudyTime": "103156.795000",
      "TransmitCoilName": "Body",
      "VariableFlipAngleFlag": "N",
      "WindowCenterWidthExplanation": "Algo1",
      "dBdt": 0.0},
    "slices": {}
  },
  "time": {
    "samples": {
      "AcquisitionNumber": [1, 2, 3, 4, 5, 6, 7, 8, 9, 10, 11, 12, 13, 14, 15, 16, 17, 18, 19, 20, 21, 22, 23, 24, 25, 26, 27, 28, 29, 30, 31, 32, 33, 34, 35, 36, 37, 38, 39, 40, 41, 42, 43, 44, 45, 46, 47, 48, 49, 50, 51, 52, 53, 54, 55, 56, 57, 58, 59, 60, 61, 62, 63, 64, 65, 66, 67, 68, 69, 70, 71, 72, 73, 74, 75, 76, 77, 78, 79, 80, 81, 82, 83, 84, 85, 86, 87, 88, 89, 90, 91, 92, 93, 94, 95, 96, 97, 98, 99, 100, 101, 102, 103, 104, 105, 106, 107, 108, 109, 110, 111, 112, 113, 114, 115, 116, 117, 118, 119, 120, 121, 122, 123, 124, 125, 126, 127, 128, 129, 130, 131, 132, 133, 134, 135, 136, 137, 138, 139, 140, 141, 142, 143, 144, 145, 146, 147, 148, 149, 150, 151, 152, 153, 154, 155, 156, 157, 158, 159, 160, 161, 162, 163, 164, 165, 166, 167, 168, 169, 170, 171, 172, 173, 174, 175, 176, 177, 178, 179, 180, 181, 182, 183, 184, 185, 186, 187, 188, 189, 190, 191, 192, 193, 194, 195, 196, 197, 198, 199, 200, 201, 202, 203, 204, 205, 206, 207, 208, 209, 210, 211, 212, 213, 214, 215, 216, 217, 218, 219, 220, 221, 222, 223, 224, 225, 226, 227, 228, 229, 230, 231, 232, 233, 234, 235, 236, 237, 238, 239, 240, 241, 242, 243, 244, 245, 246, 247, 248, 249, 250, 251, 252, 253, 254, 255, 256, 257, 258, 259, 260, 261, 262, 263, 264],
      "AcquisitionTime": ["112612.525000", "112613.525000", "112614.525000", "112615.525000", "112616.525000", "112617.525000", "112618.525000", "112619.525000", "112620.525000", "112621.525000", "112622.525000", "112623.525000", "112624.525000", "112625.525000", "112626.525000", "112627.525000", "112628.525000", "112629.525000", "112630.525000", "112631.525000", "112632.525000", "112633.525000", "112634.525000", "112635.525000", "112636.525000", "112637.525000", "112638.525000", "112639.525000", "112640.525000", "112641.525000", "112642.525000", "112643.525000", "112644.525000", "112645.525000", "112646.525000", "112647.525000", "112648.525000", "112649.525000", "112650.525000", "112651.525000", "112652.525000", "112653.525000", "112654.525000", "112655.525000", "112656.525000", "112657.525000", "112658.525000", "112659.525000", "112700.525000", "112701.525000", "112702.525000", "112703.525000", "112704.525000", "112705.525000", "112706.525000", "112707.525000", "112708.525000", "112709.525000", "112710.525000", "112711.525000", "112712.525000", "112713.525000", "112714.525000", "112715.525000", "112716.525000", "112717.525000", "112718.525000", "112719.525000", "112720.525000", "112721.525000", "112722.525000", "112723.525000", "112724.525000", "112725.525000", "112726.525000", "112727.525000", "112728.525000", "112729.525000", "112730.525000", "112731.525000", "112732.525000", "112733.525000", "112734.525000", "112735.525000", "112736.525000", "112737.525000", "112738.525000", "112739.525000", "112740.525000", "112741.525000", "112742.525000", "112743.525000", "112744.525000", "112745.525000", "112746.525000", "112747.525000", "112748.525000", "112749.525000", "112750.525000", "112751.525000", "112752.525000", "112753.525000", "112754.525000", "112755.525000", "112756.525000", "112757.525000", "112758.525000", "112759.525000", "112800.525000", "112801.525000", "112802.525000", "112803.525000", "112804.525000", "112805.525000", "112806.525000", "112807.525000", "112808.525000", "112809.525000", "112810.525000", "112811.525000", "112812.525000", "112813.525000", "112814.525000", "112815.525000", "112816.525000", "112817.525000", "112818.525000", "112819.525000", "112820.525000", "112821.525000", "112822.525000", "112823.525000", "112824.525000", "112825.525000", "112826.525000", "112827.525000", "112828.525000", "112829.525000", "112830.525000", "112831.525000", "112832.525000", "112833.525000", "112834.525000", "112835.525000", "112836.525000", "112837.525000", "112838.525000", "112839.525000", "112840.525000", "112841.525000", "112842.525000", "112843.525000", "112844.525000", "112845.525000", "112846.525000", "112847.525000", "112848.525000", "112849.525000", "112850.525000", "112851.525000", "112852.525000", "112853.525000", "112854.525000", "112855.525000", "112856.525000", "112857.525000", "112858.525000", "112859.525000", "112900.525000", "112901.525000", "112902.525000", "112903.525000", "112904.525000", "112905.525000", "112906.525000", "112907.525000", "112908.525000", "112909.525000", "112910.525000", "112911.525000", "112912.525000", "112913.525000", "112914.525000", "112915.525000", "112916.525000", "112917.525000", "112918.525000", "112919.525000", "112920.525000", "112921.525000", "112922.525000", "112923.525000", "112924.525000", "112925.525000", "112926.525000", "112927.525000", "112928.525000", "112929.525000", "112930.525000", "112931.525000", "112932.525000", "112933.525000", "112934.525000", "112935.525000", "112936.525000", "112937.525000", "112938.525000", "112939.525000", "112940.525000", "112941.525000", "112942.525000", "112943.525000", "112944.525000", "112945.525000", "112946.525000", "112947.525000", "112948.525000", "112949.525000", "112950.525000", "112951.525000", "112952.525000", "112953.525000", "112954.525000", "112955.525000", "112956.525000", "112957.525000", "112958.525000", "112959.525000", "113000.525000", "113001.525000", "113002.525000", "113003.525000", "113004.525000", "113005.525000", "113006.525000", "113007.525000", "113008.525000", "113009.525000", "113010.525000", "113011.525000", "113012.525000", "113013.525000", "113014.525000", "113015.525000", "113016.525000", "113017.525000", "113018.525000", "113019.525000", "113020.525000", "113021.525000", "113022.525000", "113023.525000", "113024.525000", "113025.525000", "113026.525000", "113027.525000", "113028.525000", "113029.525000", "113030.525000", "113031.525000", "113032.525000", "113033.525000", "113034.525000", "113035.525000"],
      "ContentTime": ["112721.809000", "112721.813000", "112721.816000", "112721.819000", "112721.822000", "112721.825000", "112721.828000", "112721.831000", "112721.834000", "112721.837000", "112721.840000", "112721.843000", "112721.848000", "112721.851000", "112721.854000", "112721.857000", "112721.860000", "112721.863000", "112721.866000", "112721.869000", "112721.872000", "112721.875000", "112721.878000", "112721.881000", "112721.884000", "112721.887000", "112721.890000", "112741.776000", "112741.780000", "112741.783000", "112741.891000", "112741.894000", "112741.897000", "112741.900000", "112741.903000", "112741.906000", "112741.909000", "112741.911000", "112741.932000", "112741.935000", "112741.938000", "112741.941000", "112741.944000", "112741.947000", "112741.950000", "112741.953000", "112741.956000", "112741.959000", "112741.962000", "112741.973000", "112741.976000", "112741.979000", "112741.982000", "112741.985000", "112741.988000", "112801.776000", "112801.779000", "112801.782000", "112801.785000", "112801.788000", "112801.791000", "112801.794000", "112801.798000", "112801.801000", "112801.803000", "112801.806000", "112801.810000", "112801.812000", "112801.815000", "112801.818000", "112801.822000", "112801.824000", "112801.827000", "112801.830000", "112801.834000", "112801.837000", "112801.839000", "112801.842000", "112801.846000", "112801.848000", "112801.851000", "112801.854000", "112801.858000", "112801.860000", "112821.776000", "112821.779000", "112821.783000", "112821.786000", "112821.788000", "112821.791000", "112821.795000", "112821.797000", "112821.800000", "112821.803000", "112821.806000", "112821.809000", "112821.812000", "112821.815000", "112821.819000", "112821.821000", "112821.825000", "112821.827000", "112821.831000", "112821.834000", "112821.836000", "112821.839000", "112821.843000", "112821.845000", "112821.848000", "112821.851000", "112821.854000", "112821.860000", "112841.776000", "112841.779000", "112841.782000", "112841.785000", "112841.788000", "112841.791000", "112841.794000", "112841.797000", "112841.800000", "112841.803000", "112841.806000", "112841.809000", "112841.812000", "112841.815000", "112841.818000", "112841.821000", "112841.824000", "112841.827000", "112841.831000", "112841.834000", "112841.836000", "112841.839000", "112841.843000", "112841.858000", "112841.861000", "112841.864000", "112841.867000", "112841.870000", "112901.777000", "112901.780000", "112901.784000", "112901.787000", "112901.790000", "112901.792000", "112901.796000", "112901.799000", "112901.802000", "112901.805000", "112901.808000", "112901.811000", "112901.814000", "112901.817000", "112901.820000", "112901.823000", "112901.827000", "112901.830000", "112901.833000", "112901.836000", "112901.839000", "112901.842000", "112901.845000", "112901.848000", "112901.851000", "112901.854000", "112901.857000", "112901.860000", "112921.776000", "112921.779000", "112921.783000", "112921.785000", "112921.788000", "112921.791000", "112921.795000", "112921.797000", "112921.800000", "112921.803000", "112921.807000", "112921.810000", "112921.813000", "112921.816000", "112921.819000", "112921.822000", "112921.825000", "112921.829000", "112921.832000", "112921.834000", "112941.776000", "112941.779000", "112941.782000", "112941.785000", "112941.788000", "112941.791000", "112941.794000", "112941.797000", "112941.800000", "112941.803000", "112941.810000", "112941.813000", "112941.816000", "112941.819000", "112941.822000", "112941.825000", "112941.829000", "112941.832000", "112941.835000", "112941.838000", "113001.776000", "113001.779000", "113001.782000", "113001.786000", "113001.789000", "113001.791000", "113001.795000", "113001.797000", "113001.800000", "113001.803000", "113001.807000", "113001.810000", "113001.813000", "113001.816000", "113001.819000", "113001.822000", "113001.825000", "113001.828000", "113001.831000", "113001.834000", "113021.776000", "113021.779000", "113021.782000", "113021.785000", "113021.788000", "113021.791000", "113021.794000", "113021.797000", "113021.800000", "113021.803000", "113021.807000", "113021.810000", "113021.813000", "113021.816000", "113021.819000", "113021.822000", "113021.825000", "113021.828000", "113021.831000", "113021.834000", "113036.873000", "113036.878000", "113036.882000", "113036.885000", "113036.890000", "113036.895000", "113036.899000", "113036.903000", "113036.906000", "113036.909000", "113036.914000", "113036.917000", "113036.921000", "113036.926000", "113036.929000", "113036.933000"],
      "InstanceCreationTime": ["112721.809000", "112721.813000", "112721.816000", "112721.819000", "112721.822000", "112721.825000", "112721.828000", "112721.831000", "112721.834000", "112721.837000", "112721.840000", "112721.843000", "112721.848000", "112721.851000", "112721.854000", "112721.857000", "112721.860000", "112721.863000", "112721.866000", "112721.869000", "112721.872000", "112721.875000", "112721.878000", "112721.881000", "112721.884000", "112721.887000", "112721.890000", "112741.776000", "112741.780000", "112741.783000", "112741.891000", "112741.894000", "112741.897000", "112741.900000", "112741.903000", "112741.906000", "112741.909000", "112741.911000", "112741.932000", "112741.935000", "112741.938000", "112741.941000", "112741.944000", "112741.947000", "112741.950000", "112741.953000", "112741.956000", "112741.959000", "112741.962000", "112741.973000", "112741.976000", "112741.979000", "112741.982000", "112741.985000", "112741.988000", "112801.776000", "112801.779000", "112801.782000", "112801.785000", "112801.788000", "112801.791000", "112801.794000", "112801.798000", "112801.801000", "112801.803000", "112801.806000", "112801.810000", "112801.812000", "112801.815000", "112801.818000", "112801.822000", "112801.824000", "112801.827000", "112801.830000", "112801.834000", "112801.837000", "112801.839000", "112801.842000", "112801.846000", "112801.848000", "112801.851000", "112801.854000", "112801.858000", "112801.860000", "112821.776000", "112821.779000", "112821.783000", "112821.786000", "112821.788000", "112821.791000", "112821.795000", "112821.797000", "112821.800000", "112821.803000", "112821.806000", "112821.809000", "112821.812000", "112821.815000", "112821.819000", "112821.821000", "112821.825000", "112821.827000", "112821.831000", "112821.834000", "112821.836000", "112821.839000", "112821.843000", "112821.845000", "112821.848000", "112821.851000", "112821.854000", "112821.860000", "112841.776000", "112841.779000", "112841.782000", "112841.785000", "112841.788000", "112841.791000", "112841.794000", "112841.797000", "112841.800000", "112841.803000", "112841.806000", "112841.809000", "112841.812000", "112841.815000", "112841.818000", "112841.821000", "112841.824000", "112841.827000", "112841.831000", "112841.834000", "112841.836000", "112841.839000", "112841.843000", "112841.858000", "112841.861000", "112841.864000", "112841.867000", "112841.870000", "112901.777000", "112901.780000", "112901.784000", "112901.787000", "112901.790000", "112901.792000", "112901.796000", "112901.799000", "112901.802000", "112901.805000", "112901.808000", "112901.811000", "112901.814000", "112901.817000", "112901.820000", "112901.823000", "112901.827000", "112901.830000", "112901.833000", "112901.836000", "112901.839000", "112901.842000", "112901.845000", "112901.848000", "112901.851000", "112901.854000", "112901.857000", "112901.860000", "112921.776000", "112921.779000", "112921.783000", "112921.785000", "112921.788000", "112921.791000", "112921.795000", "112921.797000", "112921.800000", "112921.803000", "112921.807000", "112921.810000", "112921.813000", "112921.816000", "112921.819000", "112921.822000", "112921.825000", "112921.829000", "112921.832000", "112921.834000", "112941.776000", "112941.779000", "112941.782000", "112941.785000", "112941.788000", "112941.791000", "112941.794000", "112941.797000", "112941.800000", "112941.803000", "112941.810000", "112941.813000", "112941.816000", "112941.819000", "112941.822000", "112941.825000", "112941.829000", "112941.832000", "112941.835000", "112941.838000", "113001.776000", "113001.779000", "113001.782000", "113001.786000", "113001.789000", "113001.791000", "113001.795000", "113001.797000", "113001.800000", "113001.803000", "113001.807000", "113001.810000", "113001.813000", "113001.816000", "113001.819000", "113001.822000", "113001.825000", "113001.828000", "113001.831000", "113001.834000", "113021.776000", "113021.779000", "113021.782000", "113021.785000", "113021.788000", "113021.791000", "113021.794000", "113021.797000", "113021.800000", "113021.803000", "113021.807000", "113021.810000", "113021.813000", "113021.816000", "113021.819000", "113021.822000", "113021.825000", "113021.828000", "113021.831000", "113021.834000", "113036.873000", "113036.878000", "113036.882000", "113036.885000", "113036.890000", "113036.895000", "113036.899000", "113036.903000", "113036.906000", "113036.909000", "113036.914000", "113036.917000", "113036.921000", "113036.926000", "113036.929000", "113036.933000"],
      "InstanceNumber": [1, 2, 3, 4, 5, 6, 7, 8, 9, 10, 11, 12, 13, 14, 15, 16, 17, 18, 19, 20, 21, 22, 23, 24, 25, 26, 27, 28, 29, 30, 31, 32, 33, 34, 35, 36, 37, 38, 39, 40, 41, 42, 43, 44, 45, 46, 47, 48, 49, 50, 51, 52, 53, 54, 55, 56, 57, 58, 59, 60, 61, 62, 63, 64, 65, 66, 67, 68, 69, 70, 71, 72, 73, 74, 75, 76, 77, 78, 79, 80, 81, 82, 83, 84, 85, 86, 87, 88, 89, 90, 91, 92, 93, 94, 95, 96, 97, 98, 99, 100, 101, 102, 103, 104, 105, 106, 107, 108, 109, 110, 111, 112, 113, 114, 115, 116, 117, 118, 119, 120, 121, 122, 123, 124, 125, 126, 127, 128, 129, 130, 131, 132, 133, 134, 135, 136, 137, 138, 139, 140, 141, 142, 143, 144, 145, 146, 147, 148, 149, 150, 151, 152, 153, 154, 155, 156, 157, 158, 159, 160, 161, 162, 163, 164, 165, 166, 167, 168, 169, 170, 171, 172, 173, 174, 175, 176, 177, 178, 179, 180, 181, 182, 183, 184, 185, 186, 187, 188, 189, 190, 191, 192, 193, 194, 195, 196, 197, 198, 199, 200, 201, 202, 203, 204, 205, 206, 207, 208, 209, 210, 211, 212, 213, 214, 215, 216, 217, 218, 219, 220, 221, 222, 223, 224, 225, 226, 227, 228, 229, 230, 231, 232, 233, 234, 235, 236, 237, 238, 239, 240, 241, 242, 243, 244, 245, 246, 247, 248, 249, 250, 251, 252, 253, 254, 255, 256, 257, 258, 259, 260, 261, 262, 263, 264],
      "LargestImagePixelValue": [34816, 32762, 32319, 31867, 31194, 31626, 31052, 30716, 30916, 30684, 30165, 30322, 30222, 30170, 30319, 30119, 29668, 30329, 30136, 29769, 30541, 30140, 30033, 30257, 30194, 30271, 30154, 29923, 30037, 30175, 30001, 30220, 30031, 30363, 30144, 30420, 30436, 30416, 30575, 30831, 30378, 30197, 30165, 30731, 30461, 30254, 30760, 30831, 30149, 30460, 30517, 30728, 30084, 30278, 29803, 30281, 30285, 30348, 30259, 29847, 30064, 30011, 29937, 29837, 29913, 30026, 29784, 29657, 30252, 30111, 29861, 30296, 30316, 30113, 30129, 29930, 29985, 29952, 30105, 29862, 30232, 30221, 30064, 30167, 29876, 30562, 30720, 30319, 30174, 30359, 30797, 30416, 30419, 30407, 30516, 30112, 29995, 30422, 31018, 30832, 30927, 30572, 30200, 30321, 30367, 30388, 30712, 30855, 30170, 30382, 30262, 30694, 30316, 30557, 30879, 30757, 30559, 30088, 30347, 30730, 30045, 30057, 30765, 30547, 30472, 30662, 30378, 30675, 30721, 30637, 30220, 30076, 31008, 30838, 30702, 30739, 30402, 30519, 30665, 30400, 30686, 30760, 30458, 30692, 30221, 30119, 30309, 30507, 30371, 29887, 29964, 30697, 30343, 30358, 30762, 30884, 31150, 30393, 30013, 30502, 30268, 30594, 29823, 30425, 30227, 30214, 30469, 30505, 30514, 30387, 30419, 30844, 31420, 30961, 31040, 30997, 30987, 30658, 30616, 30590, 31089, 30920, 30700, 30956, 30852, 30881, 30790, 30841, 31385, 30741, 30620, 31454, 35983, 32130, 30763, 30604, 30145, 30757, 31219, 30140, 30357, 30737, 31128, 30253, 30556, 30979, 30455, 30834, 30323, 31312, 30998, 30891, 30920, 30816, 31835, 31450, 31155, 34266, 31152, 31928, 31386, 30867, 30358, 30874, 30539, 30880, 30390, 30465, 30876, 30904, 30733, 30918, 30128, 30241, 29875, 29561, 30326, 30370, 29788, 30012, 30171, 30344, 29651, 29735, 30134, 29905, 30024, 29871, 30024, 30403, 30216, 30139, 30365, 29964, 30175, 30225, 29796, 30087, 29819, 30042, 30271, 30004, 30129, 29958],
      "WindowCenter": [9126.0, 9073.0, 9069.0, 9069.0, 9058.0, 9080.0, 9060.0, 9058.0, 9064.0, 9050.0, 9046.0, 9052.0, 9046.0, 9046.0, 9053.0, 9052.0, 9055.0, 9069.0, 9064.0, 9065.0, 9071.0, 9081.0, 9082.0, 9090.0, 9080.0, 9082.0, 9084.0, 9086.0, 9083.0, 9084.0, 9084.0, 9084.0, 9075.0, 9072.0, 9066.0, 9071.0, 9072.0, 9071.0, 9077.0, 9086.0, 9082.0, 9082.0, 9081.0, 9088.0, 9073.0, 9071.0, 9068.0, 9065.0, 9043.0, 9042.0, 9040.0, 9054.0, 9061.0, 9071.0, 9058.0, 9053.0, 9044.0, 9035.0, 9025.0, 9001.0, 9006.0, 9013.0, 9014.0, 9005.0, 9006.0, 9015.0, 9016.0, 9016.0, 9022.0, 9024.0, 9018.0, 9029.0, 9031.0, 9033.0, 9034.0, 9034.0, 9032.0, 9033.0, 9034.0, 9036.0, 9043.0, 9036.0, 9035.0, 9026.0, 9009.0, 9020.0, 9021.0, 9021.0, 9015.0, 9031.0, 9056.0, 9051.0, 9059.0, 9061.0, 9060.0, 9072.0, 9067.0, 9071.0, 9067.0, 9042.0, 9031.0, 9029.0, 9014.0, 9029.0, 9032.0, 9045.0, 9049.0, 9065.0, 9046.0, 9041.0, 9024.0, 9012.0, 9004.0, 9011.0, 9003.0, 9002.0, 9003.0, 9004.0, 9019.0, 9038.0, 9033.0, 9033.0, 9038.0, 9024.0, 9023.0, 9023.0, 9013.0, 9018.0, 9016.0, 9034.0, 9042.0, 9053.0, 9067.0, 9042.0, 9039.0, 9038.0, 9028.0, 9021.0, 9036.0, 9023.0, 9034.0, 9036.0, 9037.0, 9055.0, 9059.0, 9062.0, 9071.0, 9071.0, 9062.0, 9023.0, 9017.0, 9021.0, 9004.0, 9010.0, 9010.0, 9015.0, 9024.0, 9003.0, 9011.0, 9019.0, 9039.0, 9055.0, 9043.0, 9044.0, 9030.0, 9027.0, 9016.0, 8985.0, 8974.0, 8954.0, 8952.0, 8960.0, 8984.0, 8984.0, 8988.0, 8988.0, 9003.0, 9009.0, 9027.0, 9026.0, 9043.0, 9044.0, 9048.0, 9073.0, 9071.0, 9077.0, 9070.0, 9043.0, 9037.0, 9002.0, 9017.0, 9030.0, 9124.0, 9065.0, 9057.0, 9058.0, 9046.0, 9060.0, 9064.0, 9021.0, 9015.0, 9004.0, 9009.0, 8995.0, 8994.0, 8998.0, 8985.0, 8983.0, 8985.0, 9012.0, 9017.0, 9027.0, 9036.0, 9039.0, 9062.0, 9065.0, 9064.0, 9114.0, 9066.0, 9086.0, 9088.0, 9079.0, 9088.0, 9089.0, 9084.0, 9096.0, 9060.0, 9040.0, 9034.0, 9020.0, 9014.0, 9001.0, 8976.0, 8990.0, 8982.0, 9012.0, 9023.0, 9012.0, 9006.0, 9020.0, 9022.0, 9021.0, 8998.0, 8966.0, 8949.0, 8923.0, 8917.0, 8916.0, 8922.0, 8938.0, 8941.0, 8944.0, 8951.0, 8944.0, 8961.0, 8972.0, 8986.0, 8995.0, 8990.0, 8997.0, 9003.0, 8995.0, 8996.0, 9003.0],
      "WindowWidth": [19406.0, 19289.0, 19272.0, 19265.0, 19249.0, 19285.0, 19249.0, 19242.0, 19248.0, 19226.0, 19225.0, 19234.0, 19226.0, 19228.0, 19237.0, 19238.0, 19246.0, 19272.0, 19265.0, 19269.0, 19277.0, 19298.0, 19303.0, 19320.0, 19298.0, 19303.0, 19310.0, 19318.0, 19308.0, 19308.0, 19309.0, 19308.0, 19289.0, 19283.0, 19274.0, 19281.0, 19282.0, 19278.0, 19286.0, 19308.0, 19304.0, 19305.0, 19301.0, 19313.0, 19284.0, 19275.0, 19264.0, 19257.0, 19214.0, 19215.0, 19207.0, 19230.0, 19255.0, 19274.0, 19253.0, 19235.0, 19213.0, 19193.0, 19172.0, 19126.0, 19131.0, 19145.0, 19151.0, 19134.0, 19138.0, 19155.0, 19160.0, 19161.0, 19171.0, 19177.0, 19169.0, 19184.0, 19188.0, 19195.0, 19201.0, 19200.0, 19194.0, 19194.0, 19199.0, 19206.0, 19219.0, 19205.0, 19201.0, 19185.0, 19152.0, 19164.0, 19167.0, 19170.0, 19161.0, 19191.0, 19245.0, 19237.0, 19250.0, 19257.0, 19252.0, 19279.0, 19276.0, 19278.0, 19265.0, 19214.0, 19192.0, 19185.0, 19155.0, 19181.0, 19193.0, 19216.0, 19226.0, 19258.0, 19227.0, 19211.0, 19176.0, 19144.0, 19133.0, 19150.0, 19131.0, 19129.0, 19131.0, 19137.0, 19164.0, 19209.0, 19198.0, 19200.0, 19206.0, 19181.0, 19180.0, 19181.0, 19154.0, 19159.0, 19149.0, 19191.0, 19217.0, 19246.0, 19271.0, 19217.0, 19208.0, 19206.0, 19182.0, 19173.0, 19201.0, 19180.0, 19193.0, 19197.0, 19199.0, 19235.0, 19250.0, 19261.0, 19277.0, 19278.0, 19256.0, 19184.0, 19164.0, 19169.0, 19130.0, 19142.0, 19148.0, 19149.0, 19170.0, 19129.0, 19150.0, 19161.0, 19205.0, 19236.0, 19222.0, 19219.0, 19194.0, 19186.0, 19160.0, 19084.0, 19060.0, 19017.0, 19012.0, 19029.0, 19080.0, 19080.0, 19096.0, 19096.0, 19120.0, 19142.0, 19184.0, 19175.0, 19210.0, 19207.0, 19224.0, 19273.0, 19276.0, 19287.0, 19277.0, 19220.0, 19197.0, 19122.0, 19155.0, 19173.0, 19337.0, 19250.0, 19241.0, 19243.0, 19227.0, 19248.0, 19247.0, 19172.0, 19150.0, 19126.0, 19134.0, 19113.0, 19108.0, 19110.0, 19094.0, 19089.0, 19092.0, 19140.0, 19157.0, 19178.0, 19197.0, 19207.0, 19254.0, 19265.0, 19256.0, 19343.0, 19267.0, 19299.0, 19302.0, 19294.0, 19312.0, 19317.0, 19311.0, 19326.0, 19258.0, 19212.0, 19194.0, 19159.0, 19155.0, 19117.0, 19070.0, 19096.0, 19081.0, 19156.0, 19167.0, 19138.0, 19133.0, 19160.0, 19165.0, 19164.0, 19120.0, 19053.0, 19009.0, 18958.0, 18939.0, 18942.0, 18950.0, 18981.0, 18993.0, 19002.0, 19015.0, 19001.0, 19039.0, 19063.0, 19102.0, 19120.0, 19111.0, 19123.0, 19133.0, 19115.0, 19120.0, 19133.0]
    },
    "slices": {}
  },
  "NumberOfVolumes": 264
}