{
  "AcquisitionMatrixPE": 104,
  "AcquisitionNumber": 1,
  "AcquisitionTime": "11:21:7.510000",
  "BandwidthPerPixelPhaseEncode": 16.578,
  "BaseResolution": 104,
  "BodyPartExamined": "BRAIN",
  "ConsistencyInfo": "N4_VE11C_LATEST_20160120",
  "ConversionSoftware": "dcm2niix",
  "ConversionSoftwareVersion": "v1.0.20190410  GCC6.3.0",
  "DerivedVendorReportedEchoSpacing": 0.000580009,
  "DeviceSerialNumber": "166018",
  "DwellTime": 2.1e-06,
  "EchoTime": 0.037,
  "EchoTrainLength": 104,
  "EffectiveEchoSpacing": 0.000580009,
  "FlipAngle": 68,
  "ImageComments": "Unaliased_MB6_PE3_LB",
  "ImageOrientationPatientDICOM": [0.998853, -0.0388923, 0.0279193, 0.0430869, 0.984487, -0.170083],
  "ImageType": [
    "ORIGINAL",
    "PRIMARY",
    "M",
    "MB",
    "ND",
    "MOSAIC"
],
  "ImagingFrequency": 123.191,
  "InPlanePhaseEncodingDirectionDICOM": "COL",
  "InstitutionAddress": "Washington_Place_6_NYC_NYC_US_10003",
  "InstitutionName": "NYU_-_CBI",
  "InstitutionalDepartmentName": "Department",
  "MRAcquisitionType": "2D",
  "MagneticFieldStrength": 3,
  "Manufacturer": "Siemens",
  "ManufacturersModelName": "Prisma",
  "Modality": "MR",
  "MultibandAccelerationFactor": 6,
  "PartialFourier": 1,
  "PatientPosition": "HFS",
  "PercentPhaseFOV": 100,
  "PhaseEncodingDirection": "j",
  "PhaseEncodingSteps": 104,
  "PhaseResolution": 1,
  "PixelBandwidth": 2290,
  "ProcedureStepDescription": "Investigators_Winawer",
  "ProtocolName": "task-sfprescaled_cmrr_mbepi_s6_2mm_66sl_PA_TR1.0",
  "PulseSequenceDetails": "%CustomerSeq%_cmrr_mbep2d_bold",
  "ReceiveCoilActiveElements": "HC1-7",
  "ReceiveCoilName": "HeadNeck_64",
  "ReconMatrixPE": 104,
  "RepetitionTime": 1,
  "SAR": 0.0728078,
  "ScanOptions": "FS",
  "ScanningSequence": "EP",
  "SequenceName": "epfid2d1_104",
  "SequenceVariant": "SK_SS",
  "SeriesDescription": "task-sfprescaled_cmrr_mbepi_s6_2mm_66sl_PA_TR1.0",
  "SeriesNumber": 22,
  "ShimSetting": [252, -12611, -8531, 327, -46, -7, 35, 0],
  "SliceThickness": 2,
  "SliceTiming": [0, 0.535, 0.09, 0.6225, 0.1775, 0.7125, 0.2675, 0.8025, 0.355, 0.89, 0.445, 0, 0.535, 0.09, 0.6225, 0.1775, 0.7125, 0.2675, 0.8025, 0.355, 0.89, 0.445, 0, 0.535, 0.09, 0.6225, 0.1775, 0.7125, 0.2675, 0.8025, 0.355, 0.89, 0.445, 0, 0.535, 0.09, 0.6225, 0.1775, 0.7125, 0.2675, 0.8025, 0.355, 0.89, 0.445, 0, 0.535, 0.09, 0.6225, 0.1775, 0.7125, 0.2675, 0.8025, 0.355, 0.89, 0.445, 0, 0.535, 0.09, 0.6225, 0.1775, 0.7125, 0.2675, 0.8025, 0.355, 0.89, 0.445],
  "SoftwareVersions": "syngo_MR_E11",
  "SpacingBetweenSlices": 2,
  "StationName": "AWP166018",
  "TaskName": "sfprescaled",
  "TotalReadoutTime": 0.0597409,
  "TxRefAmp": 216.634,
  "WipMemBlock": "0147bbda-03b7-44ae-b501-601ec328b3ca||Sequence: R016 ve11c/master r/8780670; Nov 27 2017 15:05:12 by eja",
  "dcmmeta_affine": [
    [-1.9977065324783325, 0.0861738920211792, 0.04174263775348663, 103.73658752441406],
    [0.07778450101613998, 1.9689745903015137, -0.34218233823776245, -73.6180648803711],
    [0.0558386854827404, 0.34016647934913635, 1.970068335533142, -67.41401672363281],
    [0.0, 0.0, 0.0, 1.0]
],
  "dcmmeta_reorient_transform": [
    [0.0, -1.0, 0.0, 103.0],
    [1.0, 0.0, 0.0, 0.0],
    [0.0, 0.0, 1.0, 0.0],
    [0.0, 0.0, 0.0, 1.0]
],
  "dcmmeta_shape": [104, 104, 66, 264],
  "dcmmeta_slice_dim": 2,
  "dcmmeta_version": 0.6,
  "global": {
    "const": {
      "AccessionNumber": "k5odmn64",
      "AcquisitionMatrix": [104, 0, 0, 104],
      "AngioFlag": "N",
      "BitsAllocated": 16,
      "BitsStored": 16,
      "BodyPartExamined": "BRAIN",
      "Columns": 936,
      "EchoNumbers": 1,
      "EchoTime": 37.0,
      "EchoTrainLength": 104,
      "FlipAngle": 68.0,
      "HighBit": 15,
      "ImageOrientationPatient": [0.99885329406993, -0.0388922510526, 0.02791934336097, 0.04308694691435, 0.98448728111066, -0.1700832394357],
      "ImagePositionPatient": [-979.50677938651, -915.92138287249, 85.903491900522],
      "ImageType": [
        "ORIGINAL",
        "PRIMARY",
        "M",
        "MB",
        "ND",
        "MOSAIC"
],
      "ImagedNucleus": "1H",
      "ImagingFrequency": 123.190755,
      "InPlanePhaseEncodingDirection": "COL",
      "MRAcquisitionType": "2D",
      "MagneticFieldStrength": 3.0,
      "Manufacturer": "SIEMENS",
      "ManufacturerModelName": "Prisma",
      "Modality": "MR",
      "NumberOfAverages": 1.0,
      "NumberOfPhaseEncodingSteps": 104,
      "PercentPhaseFieldOfView": 100.0,
      "PercentSampling": 100.0,
      "PerformedProcedureStepStartTime": "103156.857000",
      "PhotometricInterpretation": "MONOCHROME2",
      "PixelBandwidth": 2290.0,
      "PixelRepresentation": 0,
      "PixelSpacing": [2.0, 2.0],
      "ProtocolName": "task-sfprescaled_cmrr_mbepi_s6_2mm_66sl_PA_TR1.0",
      "RepetitionTime": 1000.0,
      "Rows": 936,
      "SAR": 0.07280780157127,
      "SamplesPerPixel": 1,
      "ScanOptions": "FS",
      "ScanningSequence": "EP",
      "SequenceName": "epfid2d1_104",
      "SequenceVariant": [
        "SK",
        "SS"
],
      "SeriesDescription": "task-sfprescaled_cmrr_mbepi_s6_2mm_66sl_PA_TR1.0",
      "SeriesNumber": 22,
      "SeriesTime": "112221.969000",
      "SliceLocation": -51.644587110569,
      "SliceThickness": 2.0,
      "SmallestImagePixelValue": 0,
      "SoftwareVersions": "syngo MR E11",
      "SpacingBetweenSlices": 2.0000000771805,
      "SpecificCharacterSet": "ISO_IR 100",
      "StudyID": "1",
      "StudyTime": "103156.795000",
      "TransmitCoilName": "Body",
      "VariableFlipAngleFlag": "N",
      "WindowCenterWidthExplanation": "Algo1",
      "dBdt": 0.0},
    "slices": {}
  },
  "time": {
    "samples": {
      "AcquisitionNumber": [1, 2, 3, 4, 5, 6, 7, 8, 9, 10, 11, 12, 13, 14, 15, 16, 17, 18, 19, 20, 21, 22, 23, 24, 25, 26, 27, 28, 29, 30, 31, 32, 33, 34, 35, 36, 37, 38, 39, 40, 41, 42, 43, 44, 45, 46, 47, 48, 49, 50, 51, 52, 53, 54, 55, 56, 57, 58, 59, 60, 61, 62, 63, 64, 65, 66, 67, 68, 69, 70, 71, 72, 73, 74, 75, 76, 77, 78, 79, 80, 81, 82, 83, 84, 85, 86, 87, 88, 89, 90, 91, 92, 93, 94, 95, 96, 97, 98, 99, 100, 101, 102, 103, 104, 105, 106, 107, 108, 109, 110, 111, 112, 113, 114, 115, 116, 117, 118, 119, 120, 121, 122, 123, 124, 125, 126, 127, 128, 129, 130, 131, 132, 133, 134, 135, 136, 137, 138, 139, 140, 141, 142, 143, 144, 145, 146, 147, 148, 149, 150, 151, 152, 153, 154, 155, 156, 157, 158, 159, 160, 161, 162, 163, 164, 165, 166, 167, 168, 169, 170, 171, 172, 173, 174, 175, 176, 177, 178, 179, 180, 181, 182, 183, 184, 185, 186, 187, 188, 189, 190, 191, 192, 193, 194, 195, 196, 197, 198, 199, 200, 201, 202, 203, 204, 205, 206, 207, 208, 209, 210, 211, 212, 213, 214, 215, 216, 217, 218, 219, 220, 221, 222, 223, 224, 225, 226, 227, 228, 229, 230, 231, 232, 233, 234, 235, 236, 237, 238, 239, 240, 241, 242, 243, 244, 245, 246, 247, 248, 249, 250, 251, 252, 253, 254, 255, 256, 257, 258, 259, 260, 261, 262, 263, 264],
      "AcquisitionTime": ["112107.510000", "112108.510000", "112109.510000", "112110.510000", "112111.510000", "112112.510000", "112113.510000", "112114.510000", "112115.510000", "112116.510000", "112117.510000", "112118.510000", "112119.510000", "112120.510000", "112121.510000", "112122.510000", "112123.510000", "112124.510000", "112125.510000", "112126.510000", "112127.510000", "112128.510000", "112129.510000", "112130.510000", "112131.510000", "112132.510000", "112133.510000", "112134.510000", "112135.510000", "112136.510000", "112137.510000", "112138.510000", "112139.510000", "112140.510000", "112141.510000", "112142.510000", "112143.510000", "112144.510000", "112145.510000", "112146.510000", "112147.510000", "112148.510000", "112149.510000", "112150.510000", "112151.510000", "112152.510000", "112153.510000", "112154.510000", "112155.510000", "112156.510000", "112157.510000", "112158.510000", "112159.510000", "112200.510000", "112201.510000", "112202.510000", "112203.510000", "112204.510000", "112205.510000", "112206.510000", "112207.510000", "112208.510000", "112209.510000", "112210.510000", "112211.510000", "112212.510000", "112213.510000", "112214.510000", "112215.510000", "112216.510000", "112217.510000", "112218.510000", "112219.510000", "112220.510000", "112221.510000", "112222.510000", "112223.510000", "112224.510000", "112225.510000", "112226.510000", "112227.510000", "112228.510000", "112229.510000", "112230.510000", "112231.510000", "112232.510000", "112233.510000", "112234.510000", "112235.510000", "112236.510000", "112237.510000", "112238.510000", "112239.510000", "112240.510000", "112241.510000", "112242.510000", "112243.510000", "112244.510000", "112245.510000", "112246.510000", "112247.510000", "112248.510000", "112249.510000", "112250.510000", "112251.510000", "112252.510000", "112253.510000", "112254.510000", "112255.510000", "112256.510000", "112257.510000", "112258.510000", "112259.510000", "112300.510000", "112301.510000", "112302.510000", "112303.510000", "112304.510000", "112305.510000", "112306.510000", "112307.510000", "112308.510000", "112309.510000", "112310.510000", "112311.510000", "112312.510000", "112313.510000", "112314.510000", "112315.510000", "112316.510000", "112317.510000", "112318.510000", "112319.510000", "112320.510000", "112321.510000", "112322.510000", "112323.510000", "112324.510000", "112325.510000", "112326.510000", "112327.510000", "112328.510000", "112329.510000", "112330.510000", "112331.510000", "112332.510000", "112333.510000", "112334.510000", "112335.510000", "112336.510000", "112337.510000", "112338.510000", "112339.510000", "112340.510000", "112341.510000", "112342.510000", "112343.510000", "112344.510000", "112345.510000", "112346.510000", "112347.510000", "112348.510000", "112349.510000", "112350.510000", "112351.510000", "112352.510000", "112353.510000", "112354.510000", "112355.510000", "112356.510000", "112357.510000", "112358.510000", "112359.510000", "112400.510000", "112401.510000", "112402.510000", "112403.510000", "112404.510000", "112405.510000", "112406.510000", "112407.510000", "112408.510000", "112409.510000", "112410.510000", "112411.510000", "112412.510000", "112413.510000", "112414.510000", "112415.510000", "112416.510000", "112417.510000", "112418.510000", "112419.510000", "112420.510000", "112421.510000", "112422.510000", "112423.510000", "112424.510000", "112425.510000", "112426.510000", "112427.510000", "112428.510000", "112429.510000", "112430.510000", "112431.510000", "112432.510000", "112433.510000", "112434.510000", "112435.510000", "112436.510000", "112437.510000", "112438.510000", "112439.510000", "112440.510000", "112441.510000", "112442.510000", "112443.510000", "112444.510000", "112445.510000", "112446.510000", "112447.510000", "112448.510000", "112449.510000", "112450.510000", "112451.510000", "112452.510000", "112453.510000", "112454.510000", "112455.510000", "112456.510000", "112457.510000", "112458.510000", "112459.510000", "112500.510000", "112501.510000", "112502.510000", "112503.510000", "112504.510000", "112505.510000", "112506.510000", "112507.510000", "112508.510000", "112509.510000", "112510.510000", "112511.510000", "112512.510000", "112513.510000", "112514.510000", "112515.510000", "112516.510000", "112517.510000", "112518.510000", "112519.510000", "112520.510000", "112521.510000", "112522.510000", "112523.510000", "112524.510000", "112525.510000", "112526.510000", "112527.510000", "112528.510000", "112529.510000", "112530.510000"],
      "ContentTime": ["112221.972000", "112221.975000", "112221.981000", "112221.985000", "112221.987000", "112221.990000", "112221.993000", "112221.997000", "112222.001000", "112222.004000", "112222.007000", "112222.010000", "112222.013000", "112222.016000", "112222.019000", "112222.029000", "112222.032000", "112222.035000", "112222.038000", "112222.041000", "112222.044000", "112222.047000", "112222.050000", "112222.053000", "112222.056000", "112241.936000", "112241.939000", "112241.942000", "112241.945000", "112241.948000", "112241.951000", "112241.954000", "112241.957000", "112241.963000", "112241.966000", "112241.969000", "112241.982000", "112241.985000", "112241.989000", "112241.991000", "112241.994000", "112241.997000", "112242.001000", "112242.004000", "112242.007000", "112242.010000", "112242.013000", "112242.016000", "112242.019000", "112242.022000", "112242.025000", "112242.028000", "112242.031000", "112301.936000", "112301.939000", "112301.942000", "112301.945000", "112301.948000", "112301.951000", "112301.954000", "112301.957000", "112301.960000", "112301.964000", "112301.967000", "112301.970000", "112301.973000", "112301.976000", "112301.979000", "112301.982000", "112301.985000", "112301.988000", "112301.991000", "112301.995000", "112301.998000", "112302.002000", "112302.004000", "112302.008000", "112302.011000", "112302.013000", "112302.018000", "112302.021000", "112321.936000", "112321.939000", "112321.942000", "112321.945000", "112321.948000", "112321.951000", "112321.954000", "112321.957000", "112321.960000", "112321.963000", "112321.966000", "112321.969000", "112321.972000", "112321.979000", "112321.982000", "112321.985000", "112321.988000", "112321.991000", "112321.994000", "112321.997000", "112322.001000", "112322.004000", "112322.007000", "112322.010000", "112322.013000", "112322.017000", "112322.020000", "112322.023000", "112322.026000", "112341.936000", "112341.939000", "112341.942000", "112341.945000", "112341.948000", "112341.951000", "112341.954000", "112341.957000", "112341.960000", "112341.963000", "112341.966000", "112341.969000", "112341.972000", "112341.975000", "112341.978000", "112341.981000", "112341.984000", "112341.987000", "112341.990000", "112341.993000", "112341.996000", "112342.000000", "112342.003000", "112342.006000", "112342.009000", "112342.012000", "112342.015000", "112342.018000", "112401.936000", "112401.939000", "112401.942000", "112401.945000", "112401.948000", "112401.951000", "112401.954000", "112401.957000", "112401.960000", "112401.963000", "112401.966000", "112401.969000", "112401.972000", "112401.975000", "112401.978000", "112401.981000", "112401.984000", "112401.987000", "112401.990000", "112401.993000", "112401.996000", "112402.000000", "112402.003000", "112402.006000", "112402.009000", "112402.012000", "112402.015000", "112402.018000", "112421.936000", "112421.939000", "112421.942000", "112421.945000", "112421.948000", "112421.951000", "112421.954000", "112421.957000", "112421.960000", "112421.963000", "112421.966000", "112421.969000", "112421.972000", "112421.975000", "112421.978000", "112421.981000", "112421.984000", "112421.987000", "112421.990000", "112421.993000", "112421.997000", "112422.001000", "112422.004000", "112422.007000", "112422.010000", "112422.013000", "112422.016000", "112441.936000", "112441.947000", "112441.950000", "112441.953000", "112441.956000", "112441.959000", "112441.962000", "112441.965000", "112441.968000", "112441.971000", "112441.974000", "112441.977000", "112441.980000", "112441.983000", "112441.986000", "112441.989000", "112441.992000", "112441.995000", "112441.998000", "112442.002000", "112501.936000", "112501.940000", "112501.943000", "112501.946000", "112501.949000", "112501.952000", "112501.955000", "112501.958000", "112501.961000", "112501.964000", "112501.967000", "112501.970000", "112501.973000", "112501.977000", "112501.980000", "112501.983000", "112501.986000", "112501.989000", "112501.992000", "112501.995000", "112521.936000", "112521.939000", "112521.942000", "112521.945000", "112521.948000", "112521.951000", "112521.954000", "112521.957000", "112521.960000", "112521.963000", "112521.966000", "112521.969000", "112521.972000", "112521.976000", "112521.978000", "112521.982000", "112521.985000", "112521.988000", "112521.991000", "112521.994000", "112532.571000", "112532.574000", "112532.577000", "112532.580000", "112532.584000", "112532.587000", "112532.590000", "112532.593000", "112532.596000", "112532.599000", "112532.602000"],
      "InstanceCreationTime": ["112221.972000", "112221.975000", "112221.981000", "112221.985000", "112221.987000", "112221.990000", "112221.993000", "112221.997000", "112222.001000", "112222.004000", "112222.007000", "112222.010000", "112222.013000", "112222.016000", "112222.019000", "112222.029000", "112222.032000", "112222.035000", "112222.038000", "112222.041000", "112222.044000", "112222.047000", "112222.050000", "112222.053000", "112222.056000", "112241.936000", "112241.939000", "112241.942000", "112241.945000", "112241.948000", "112241.951000", "112241.954000", "112241.957000", "112241.963000", "112241.966000", "112241.969000", "112241.982000", "112241.985000", "112241.989000", "112241.991000", "112241.994000", "112241.997000", "112242.001000", "112242.004000", "112242.007000", "112242.010000", "112242.013000", "112242.016000", "112242.019000", "112242.022000", "112242.025000", "112242.028000", "112242.031000", "112301.936000", "112301.939000", "112301.942000", "112301.945000", "112301.948000", "112301.951000", "112301.954000", "112301.957000", "112301.960000", "112301.964000", "112301.967000", "112301.970000", "112301.973000", "112301.976000", "112301.979000", "112301.982000", "112301.985000", "112301.988000", "112301.991000", "112301.995000", "112301.998000", "112302.002000", "112302.004000", "112302.008000", "112302.011000", "112302.013000", "112302.018000", "112302.021000", "112321.936000", "112321.939000", "112321.942000", "112321.945000", "112321.948000", "112321.951000", "112321.954000", "112321.957000", "112321.960000", "112321.963000", "112321.966000", "112321.969000", "112321.972000", "112321.979000", "112321.982000", "112321.985000", "112321.988000", "112321.991000", "112321.994000", "112321.997000", "112322.001000", "112322.004000", "112322.007000", "112322.010000", "112322.013000", "112322.017000", "112322.020000", "112322.023000", "112322.026000", "112341.936000", "112341.939000", "112341.942000", "112341.945000", "112341.948000", "112341.951000", "112341.954000", "112341.957000", "112341.960000", "112341.963000", "112341.966000", "112341.969000", "112341.972000", "112341.975000", "112341.978000", "112341.981000", "112341.984000", "112341.987000", "112341.990000", "112341.993000", "112341.996000", "112342.000000", "112342.003000", "112342.006000", "112342.009000", "112342.012000", "112342.015000", "112342.018000", "112401.936000", "112401.939000", "112401.942000", "112401.945000", "112401.948000", "112401.951000", "112401.954000", "112401.957000", "112401.960000", "112401.963000", "112401.966000", "112401.969000", "112401.972000", "112401.975000", "112401.978000", "112401.981000", "112401.984000", "112401.987000", "112401.990000", "112401.993000", "112401.996000", "112402.000000", "112402.003000", "112402.006000", "112402.009000", "112402.012000", "112402.015000", "112402.018000", "112421.936000", "112421.939000", "112421.942000", "112421.945000", "112421.948000", "112421.951000", "112421.954000", "112421.957000", "112421.960000", "112421.963000", "112421.966000", "112421.969000", "112421.972000", "112421.975000", "112421.978000", "112421.981000", "112421.984000", "112421.987000", "112421.990000", "112421.993000", "112421.997000", "112422.001000", "112422.004000", "112422.007000", "112422.010000", "112422.013000", "112422.016000", "112441.936000", "112441.947000", "112441.950000", "112441.953000", "112441.956000", "112441.959000", "112441.962000", "112441.965000", "112441.968000", "112441.971000", "112441.974000", "112441.977000", "112441.980000", "112441.983000", "112441.986000", "112441.989000", "112441.992000", "112441.995000", "112441.998000", "112442.002000", "112501.936000", "112501.940000", "112501.943000", "112501.946000", "112501.949000", "112501.952000", "112501.955000", "112501.958000", "112501.961000", "112501.964000", "112501.967000", "112501.970000", "112501.973000", "112501.977000", "112501.980000", "112501.983000", "112501.986000", "112501.989000", "112501.992000", "112501.995000", "112521.936000", "112521.939000", "112521.942000", "112521.945000", "112521.948000", "112521.951000", "112521.954000", "112521.957000", "112521.960000", "112521.963000", "112521.966000", "112521.969000", "112521.972000", "112521.976000", "112521.978000", "112521.982000", "112521.985000", "112521.988000", "112521.991000", "112521.994000", "112532.571000", "112532.574000", "112532.577000", "112532.580000", "112532.584000", "112532.587000", "112532.590000", "112532.593000", "112532.596000", "112532.599000", "112532.602000"],
      "InstanceNumber": [1, 2, 3, 4, 5, 6, 7, 8, 9, 10, 11, 12, 13, 14, 15, 16, 17, 18, 19, 20, 21, 22, 23, 24, 25, 26, 27, 28, 29, 30, 31, 32, 33, 34, 35, 36, 37, 38, 39, 40, 41, 42, 43, 44, 45, 46, 47, 48, 49, 50, 51, 52, 53, 54, 55, 56, 57, 58, 59, 60, 61, 62, 63, 64, 65, 66, 67, 68, 69, 70, 71, 72, 73, 74, 75, 76, 77, 78, 79, 80, 81, 82, 83, 84, 85, 86, 87, 88, 89, 90, 91, 92, 93, 94, 95, 96, 97, 98, 99, 100, 101, 102, 103, 104, 105, 106, 107, 108, 109, 110, 111, 112, 113, 114, 115, 116, 117, 118, 119, 120, 121, 122, 123, 124, 125, 126, 127, 128, 129, 130, 131, 132, 133, 134, 135, 136, 137, 138, 139, 140, 141, 142, 143, 144, 145, 146, 147, 148, 149, 150, 151, 152, 153, 154, 155, 156, 157, 158, 159, 160, 161, 162, 163, 164, 165, 166, 167, 168, 169, 170, 171, 172, 173, 174, 175, 176, 177, 178, 179, 180, 181, 182, 183, 184, 185, 186, 187, 188, 189, 190, 191, 192, 193, 194, 195, 196, 197, 198, 199, 200, 201, 202, 203, 204, 205, 206, 207, 208, 209, 210, 211, 212, 213, 214, 215, 216, 217, 218, 219, 220, 221, 222, 223, 224, 225, 226, 227, 228, 229, 230, 231, 232, 233, 234, 235, 236, 237, 238, 239, 240, 241, 242, 243, 244, 245, 246, 247, 248, 249, 250, 251, 252, 253, 254, 255, 256, 257, 258, 259, 260, 261, 262, 263, 264],
      "LargestImagePixelValue": [31668, 30579, 31218, 30289, 30007, 29832, 30312, 29557, 29285, 29876, 30083, 29667, 29745, 29539, 29984, 30072, 29806, 29602, 30260, 29796, 30093, 29967, 29371, 29941, 29967, 29631, 29964, 29676, 30131, 30295, 29647, 29864, 30500, 29719, 30273, 30312, 30352, 30170, 29962, 30665, 30048, 29738, 30108, 30318, 30285, 30045, 30531, 30221, 30739, 29991, 29746, 29873, 30574, 30378, 29877, 30772, 30566, 30666, 30250, 30174, 30787, 30853, 30489, 30806, 31012, 31338, 30981, 30870, 31126, 30852, 31001, 30665, 31191, 31057, 31266, 31170, 31581, 31234, 31646, 31592, 31106, 31537, 31445, 31137, 30859, 30969, 31289, 31578, 31095, 31375, 31430, 31739, 31428, 31567, 31670, 31520, 31769, 31458, 31173, 30981, 31076, 31118, 30925, 31409, 31565, 31762, 31208, 31273, 31387, 31641, 31594, 31186, 31552, 32037, 31622, 31503, 31606, 31234, 32100, 32029, 31621, 31728, 31659, 32057, 31669, 31488, 31718, 31355, 31933, 31870, 31616, 31430, 31602, 31435, 31306, 31548, 31473, 31291, 31450, 31567, 31685, 31624, 31143, 31442, 31708, 31253, 31708, 31446, 31438, 31592, 31681, 31581, 31992, 31383, 31941, 31568, 31631, 32105, 31666, 31606, 31888, 31655, 31495, 31003, 30400, 30395, 31088, 30861, 31564, 31301, 31607, 31673, 31629, 31501, 31873, 31600, 31230, 31424, 31478, 31436, 31948, 31949, 31689, 32229, 31711, 31466, 31853, 32186, 32043, 32044, 31752, 31591, 31661, 31683, 31449, 31996, 31909, 31547, 31856, 31684, 31945, 31713, 31467, 31756, 31439, 31817, 31952, 31990, 31906, 31438, 31734, 31536, 31766, 31696, 31518, 32041, 32017, 32144, 31575, 31769, 31608, 31494, 31408, 31963, 31998, 31712, 31658, 31696, 32004, 31525, 31594, 31740, 31500, 31706, 31786, 31642, 31725, 31687, 31716, 31917, 32040, 31912, 32041, 31924, 31692, 31695, 32207, 31836, 31880, 32035, 32017, 31829, 31941, 31920, 31811, 31831, 31815, 31769, 31532, 31526, 31495, 31832, 31938, 31640],
      "WindowCenter": [9111.0, 9062.0, 9061.0, 9036.0, 9041.0, 9055.0, 9077.0, 9073.0, 9068.0, 9067.0, 9071.0, 9053.0, 9041.0, 9026.0, 9037.0, 9032.0, 9040.0, 9031.0, 9045.0, 9043.0, 9056.0, 9048.0, 9034.0, 9040.0, 9039.0, 9024.0, 9021.0, 9020.0, 9029.0, 9044.0, 9032.0, 9032.0, 9037.0, 9025.0, 9044.0, 9044.0, 9037.0, 9039.0, 9049.0, 9073.0, 9062.0, 9055.0, 9062.0, 9068.0, 9067.0, 9057.0, 9054.0, 9040.0, 9053.0, 9040.0, 9032.0, 9031.0, 9043.0, 9052.0, 9040.0, 9053.0, 9054.0, 9055.0, 9047.0, 9039.0, 9045.0, 9044.0, 9037.0, 9050.0, 9051.0, 9066.0, 9070.0, 9065.0, 9072.0, 9072.0, 9073.0, 9065.0, 9069.0, 9070.0, 9085.0, 9081.0, 9094.0, 9087.0, 9093.0, 9095.0, 9090.0, 9094.0, 9087.0, 9079.0, 9057.0, 9053.0, 9057.0, 9056.0, 9044.0, 9049.0, 9048.0, 9053.0, 9055.0, 9063.0, 9056.0, 9056.0, 9055.0, 9049.0, 9051.0, 9059.0, 9060.0, 9062.0, 9063.0, 9062.0, 9067.0, 9067.0, 9060.0, 9057.0, 9049.0, 9055.0, 9063.0, 9050.0, 9064.0, 9071.0, 9066.0, 9067.0, 9073.0, 9067.0, 9080.0, 9074.0, 9065.0, 9062.0, 9070.0, 9088.0, 9103.0, 9115.0, 9122.0, 9110.0, 9107.0, 9094.0, 9068.0, 9050.0, 9046.0, 9039.0, 9046.0, 9062.0, 9056.0, 9058.0, 9058.0, 9063.0, 9047.0, 9037.0, 9021.0, 9026.0, 9034.0, 9036.0, 9053.0, 9058.0, 9067.0, 9075.0, 9076.0, 9076.0, 9082.0, 9062.0, 9066.0, 9059.0, 9065.0, 9072.0, 9066.0, 9059.0, 9065.0, 9060.0, 9060.0, 9043.0, 9037.0, 9038.0, 9070.0, 9081.0, 9092.0, 9076.0, 9074.0, 9072.0, 9057.0, 9038.0, 9017.0, 8989.0, 8963.0, 8967.0, 8978.0, 8986.0, 9009.0, 9020.0, 9031.0, 9047.0, 9043.0, 9037.0, 9043.0, 9056.0, 9059.0, 9067.0, 9069.0, 9072.0, 9081.0, 9074.0, 9058.0, 9064.0, 9069.0, 9074.0, 9079.0, 9081.0, 9082.0, 9091.0, 9070.0, 9083.0, 9078.0, 9093.0, 9094.0, 9092.0, 9090.0, 9068.0, 9065.0, 9065.0, 9074.0, 9091.0, 9096.0, 9111.0, 9100.0, 9100.0, 9103.0, 9105.0, 9105.0, 9089.0, 9080.0, 9092.0, 9099.0, 9094.0, 9104.0, 9098.0, 9097.0, 9081.0, 9078.0, 9071.0, 9064.0, 9077.0, 9080.0, 9078.0, 9063.0, 9070.0, 9079.0, 9102.0, 9101.0, 9110.0, 9121.0, 9132.0, 9136.0, 9129.0, 9125.0, 9102.0, 9098.0, 9075.0, 9075.0, 9065.0, 9082.0, 9100.0, 9096.0, 9088.0, 9079.0, 9069.0, 9059.0, 9041.0, 9024.0, 9029.0, 9034.0, 9029.0],
      "WindowWidth": [19407.0, 19279.0, 19260.0, 19202.0, 19215.0, 19249.0, 19289.0, 19286.0, 19279.0, 19275.0, 19277.0, 19241.0, 19214.0, 19183.0, 19200.0, 19191.0, 19210.0, 19191.0, 19217.0, 19220.0, 19242.0, 19225.0, 19200.0, 19209.0, 19206.0, 19180.0, 19170.0, 19169.0, 19188.0, 19214.0, 19197.0, 19198.0, 19203.0, 19186.0, 19217.0, 19217.0, 19205.0, 19210.0, 19235.0, 19279.0, 19265.0, 19254.0, 19263.0, 19271.0, 19267.0, 19247.0, 19235.0, 19211.0, 19231.0, 19210.0, 19195.0, 19191.0, 19211.0, 19227.0, 19212.0, 19231.0, 19236.0, 19238.0, 19225.0, 19209.0, 19216.0, 19214.0, 19204.0, 19225.0, 19227.0, 19257.0, 19269.0, 19265.0, 19277.0, 19278.0, 19278.0, 19264.0, 19268.0, 19269.0, 19297.0, 19298.0, 19315.0, 19301.0, 19308.0, 19317.0, 19311.0, 19313.0, 19299.0, 19284.0, 19242.0, 19233.0, 19232.0, 19229.0, 19212.0, 19221.0, 19215.0, 19222.0, 19229.0, 19245.0, 19233.0, 19231.0, 19226.0, 19219.0, 19225.0, 19242.0, 19246.0, 19251.0, 19254.0, 19254.0, 19258.0, 19261.0, 19245.0, 19237.0, 19220.0, 19231.0, 19245.0, 19227.0, 19249.0, 19263.0, 19257.0, 19262.0, 19271.0, 19263.0, 19282.0, 19275.0, 19254.0, 19246.0, 19261.0, 19298.0, 19337.0, 19368.0, 19380.0, 19358.0, 19348.0, 19316.0, 19259.0, 19223.0, 19204.0, 19195.0, 19210.0, 19239.0, 19230.0, 19238.0, 19237.0, 19243.0, 19212.0, 19188.0, 19154.0, 19164.0, 19180.0, 19189.0, 19220.0, 19237.0, 19257.0, 19275.0, 19277.0, 19279.0, 19288.0, 19253.0, 19254.0, 19240.0, 19251.0, 19263.0, 19253.0, 19244.0, 19251.0, 19245.0, 19241.0, 19208.0, 19200.0, 19207.0, 19269.0, 19292.0, 19306.0, 19274.0, 19269.0, 19261.0, 19233.0, 19192.0, 19141.0, 19081.0, 19032.0, 19038.0, 19068.0, 19084.0, 19127.0, 19149.0, 19176.0, 19209.0, 19204.0, 19195.0, 19204.0, 19225.0, 19234.0, 19249.0, 19256.0, 19264.0, 19285.0, 19273.0, 19241.0, 19252.0, 19258.0, 19276.0, 19280.0, 19286.0, 19288.0, 19314.0, 19270.0, 19292.0, 19288.0, 19318.0, 19320.0, 19312.0, 19305.0, 19260.0, 19251.0, 19254.0, 19273.0, 19312.0, 19328.0, 19357.0, 19326.0, 19325.0, 19338.0, 19345.0, 19346.0, 19312.0, 19289.0, 19310.0, 19323.0, 19318.0, 19340.0, 19326.0, 19322.0, 19291.0, 19283.0, 19270.0, 19259.0, 19281.0, 19293.0, 19285.0, 19256.0, 19271.0, 19292.0, 19335.0, 19329.0, 19349.0, 19372.0, 19401.0, 19410.0, 19397.0, 19388.0, 19342.0, 19333.0, 19271.0, 19269.0, 19245.0, 19278.0, 19318.0, 19316.0, 19299.0, 19280.0, 19257.0, 19234.0, 19197.0, 19163.0, 19170.0, 19179.0, 19174.0]
    },
    "slices": {}
  },
  "NumberOfVolumes": 264
}