{
  "AcquisitionMatrixPE": 104,
  "AcquisitionNumber": 1,
  "AcquisitionTime": "11:41:20.557500",
  "BandwidthPerPixelPhaseEncode": 16.578,
  "BaseResolution": 104,
  "BodyPartExamined": "BRAIN",
  "ConsistencyInfo": "N4_VE11C_LATEST_20160120",
  "ConversionSoftware": "dcm2niix",
  "ConversionSoftwareVersion": "v1.0.20190410  GCC6.3.0",
  "DerivedVendorReportedEchoSpacing": 0.000580009,
  "DeviceSerialNumber": "166018",
  "DwellTime": 2.1e-06,
  "EchoTime": 0.037,
  "EchoTrainLength": 104,
  "EffectiveEchoSpacing": 0.000580009,
  "FlipAngle": 68,
  "ImageComments": "Unaliased_MB6_PE3_LB",
  "ImageOrientationPatientDICOM": [0.998853, -0.0388923, 0.0279193, 0.0430869, 0.984487, -0.170083],
  "ImageType": [
    "ORIGINAL",
    "PRIMARY",
    "M",
    "MB",
    "ND",
    "MOSAIC"
],
  "ImagingFrequency": 123.191,
  "InPlanePhaseEncodingDirectionDICOM": "COL",
  "InstitutionAddress": "Washington_Place_6_NYC_NYC_US_10003",
  "InstitutionName": "NYU_-_CBI",
  "InstitutionalDepartmentName": "Department",
  "MRAcquisitionType": "2D",
  "MagneticFieldStrength": 3,
  "Manufacturer": "Siemens",
  "ManufacturersModelName": "Prisma",
  "Modality": "MR",
  "MultibandAccelerationFactor": 6,
  "PartialFourier": 1,
  "PatientPosition": "HFS",
  "PercentPhaseFOV": 100,
  "PhaseEncodingDirection": "j",
  "PhaseEncodingSteps": 104,
  "PhaseResolution": 1,
  "PixelBandwidth": 2290,
  "ProcedureStepDescription": "Investigators_Winawer",
  "ProtocolName": "task-sfprescaled_cmrr_mbepi_s6_2mm_66sl_PA_TR1.0",
  "PulseSequenceDetails": "%CustomerSeq%_cmrr_mbep2d_bold",
  "ReceiveCoilActiveElements": "HC1-7",
  "ReceiveCoilName": "HeadNeck_64",
  "ReconMatrixPE": 104,
  "RepetitionTime": 1,
  "SAR": 0.0728078,
  "ScanOptions": "FS",
  "ScanningSequence": "EP",
  "SequenceName": "epfid2d1_104",
  "SequenceVariant": "SK_SS",
  "SeriesDescription": "task-sfprescaled_cmrr_mbepi_s6_2mm_66sl_PA_TR1.0",
  "SeriesNumber": 30,
  "ShimSetting": [252, -12611, -8531, 327, -46, -7, 35, 0],
  "SliceThickness": 2,
  "SliceTiming": [0, 0.535, 0.09, 0.625, 0.1775, 0.7125, 0.2675, 0.8025, 0.3575, 0.8925, 0.445, 0, 0.535, 0.09, 0.625, 0.1775, 0.7125, 0.2675, 0.8025, 0.3575, 0.8925, 0.445, 0, 0.535, 0.09, 0.625, 0.1775, 0.7125, 0.2675, 0.8025, 0.3575, 0.8925, 0.445, 0, 0.535, 0.09, 0.625, 0.1775, 0.7125, 0.2675, 0.8025, 0.3575, 0.8925, 0.445, 0, 0.535, 0.09, 0.625, 0.1775, 0.7125, 0.2675, 0.8025, 0.3575, 0.8925, 0.445, 0, 0.535, 0.09, 0.625, 0.1775, 0.7125, 0.2675, 0.8025, 0.3575, 0.8925, 0.445],
  "SoftwareVersions": "syngo_MR_E11",
  "SpacingBetweenSlices": 2,
  "StationName": "AWP166018",
  "TaskName": "sfprescaled",
  "TotalReadoutTime": 0.0597409,
  "TxRefAmp": 216.634,
  "WipMemBlock": "0147bbda-03b7-44ae-b501-601ec328b3ca||Sequence: R016 ve11c/master r/8780670; Nov 27 2017 15:05:12 by eja",
  "dcmmeta_affine": [
    [-1.9977065324783325, 0.0861738920211792, 0.04174263775348663, 103.73658752441406],
    [0.07778450101613998, 1.9689745903015137, -0.34218233823776245, -73.6180648803711],
    [0.0558386854827404, 0.34016647934913635, 1.970068335533142, -67.41401672363281],
    [0.0, 0.0, 0.0, 1.0]
],
  "dcmmeta_reorient_transform": [
    [0.0, -1.0, 0.0, 103.0],
    [1.0, 0.0, 0.0, 0.0],
    [0.0, 0.0, 1.0, 0.0],
    [0.0, 0.0, 0.0, 1.0]
],
  "dcmmeta_shape": [104, 104, 66, 264],
  "dcmmeta_slice_dim": 2,
  "dcmmeta_version": 0.6,
  "global": {
    "const": {
      "AccessionNumber": "k5odmn64",
      "AcquisitionMatrix": [104, 0, 0, 104],
      "AngioFlag": "N",
      "BitsAllocated": 16,
      "BitsStored": 16,
      "BodyPartExamined": "BRAIN",
      "Columns": 936,
      "EchoNumbers": 1,
      "EchoTime": 37.0,
      "EchoTrainLength": 104,
      "FlipAngle": 68.0,
      "HighBit": 15,
      "ImageOrientationPatient": [0.99885329406993, -0.0388922510526, 0.02791934336097, 0.04308694691435, 0.98448728111066, -0.1700832394357],
      "ImagePositionPatient": [-979.50677938651, -915.92138287249, 85.903491900522],
      "ImageType": [
        "ORIGINAL",
        "PRIMARY",
        "M",
        "MB",
        "ND",
        "MOSAIC"
],
      "ImagedNucleus": "1H",
      "ImagingFrequency": 123.190755,
      "InPlanePhaseEncodingDirection": "COL",
      "MRAcquisitionType": "2D",
      "MagneticFieldStrength": 3.0,
      "Manufacturer": "SIEMENS",
      "ManufacturerModelName": "Prisma",
      "Modality": "MR",
      "NumberOfAverages": 1.0,
      "NumberOfPhaseEncodingSteps": 104,
      "PercentPhaseFieldOfView": 100.0,
      "PercentSampling": 100.0,
      "PerformedProcedureStepStartTime": "103156.857000",
      "PhotometricInterpretation": "MONOCHROME2",
      "PixelBandwidth": 2290.0,
      "PixelRepresentation": 0,
      "PixelSpacing": [2.0, 2.0],
      "ProtocolName": "task-sfprescaled_cmrr_mbepi_s6_2mm_66sl_PA_TR1.0",
      "RepetitionTime": 1000.0,
      "Rows": 936,
      "SAR": 0.07280780157127,
      "SamplesPerPixel": 1,
      "ScanOptions": "FS",
      "ScanningSequence": "EP",
      "SequenceName": "epfid2d1_104",
      "SequenceVariant": [
        "SK",
        "SS"
],
      "SeriesDescription": "task-sfprescaled_cmrr_mbepi_s6_2mm_66sl_PA_TR1.0",
      "SeriesNumber": 30,
      "SeriesTime": "114241.805000",
      "SliceLocation": -51.644587110569,
      "SliceThickness": 2.0,
      "SmallestImagePixelValue": 0,
      "SoftwareVersions": "syngo MR E11",
      "SpacingBetweenSlices": 2.0000000771805,
      "SpecificCharacterSet": "ISO_IR 100",
      "StudyID": "1",
      "StudyTime": "103156.795000",
      "TransmitCoilName": "Body",
      "VariableFlipAngleFlag": "N",
      "WindowCenterWidthExplanation": "Algo1",
      "dBdt": 0.0},
    "slices": {}
  },
  "time": {
    "samples": {
      "AcquisitionNumber": [1, 2, 3, 4, 5, 6, 7, 8, 9, 10, 11, 12, 13, 14, 15, 16, 17, 18, 19, 20, 21, 22, 23, 24, 25, 26, 27, 28, 29, 30, 31, 32, 33, 34, 35, 36, 37, 38, 39, 40, 41, 42, 43, 44, 45, 46, 47, 48, 49, 50, 51, 52, 53, 54, 55, 56, 57, 58, 59, 60, 61, 62, 63, 64, 65, 66, 67, 68, 69, 70, 71, 72, 73, 74, 75, 76, 77, 78, 79, 80, 81, 82, 83, 84, 85, 86, 87, 88, 89, 90, 91, 92, 93, 94, 95, 96, 97, 98, 99, 100, 101, 102, 103, 104, 105, 106, 107, 108, 109, 110, 111, 112, 113, 114, 115, 116, 117, 118, 119, 120, 121, 122, 123, 124, 125, 126, 127, 128, 129, 130, 131, 132, 133, 134, 135, 136, 137, 138, 139, 140, 141, 142, 143, 144, 145, 146, 147, 148, 149, 150, 151, 152, 153, 154, 155, 156, 157, 158, 159, 160, 161, 162, 163, 164, 165, 166, 167, 168, 169, 170, 171, 172, 173, 174, 175, 176, 177, 178, 179, 180, 181, 182, 183, 184, 185, 186, 187, 188, 189, 190, 191, 192, 193, 194, 195, 196, 197, 198, 199, 200, 201, 202, 203, 204, 205, 206, 207, 208, 209, 210, 211, 212, 213, 214, 215, 216, 217, 218, 219, 220, 221, 222, 223, 224, 225, 226, 227, 228, 229, 230, 231, 232, 233, 234, 235, 236, 237, 238, 239, 240, 241, 242, 243, 244, 245, 246, 247, 248, 249, 250, 251, 252, 253, 254, 255, 256, 257, 258, 259, 260, 261, 262, 263, 264],
      "AcquisitionTime": ["114120.557500", "114121.557500", "114122.557500", "114123.557500", "114124.557500", "114125.557500", "114126.557500", "114127.557500", "114128.557500", "114129.557500", "114130.557500", "114131.557500", "114132.557500", "114133.557500", "114134.557500", "114135.557500", "114136.557500", "114137.557500", "114138.557500", "114139.557500", "114140.557500", "114141.557500", "114142.557500", "114143.557500", "114144.557500", "114145.557500", "114146.557500", "114147.557500", "114148.557500", "114149.557500", "114150.557500", "114151.557500", "114152.557500", "114153.557500", "114154.557500", "114155.557500", "114156.557500", "114157.557500", "114158.557500", "114159.557500", "114200.557500", "114201.557500", "114202.557500", "114203.557500", "114204.557500", "114205.557500", "114206.557500", "114207.557500", "114208.557500", "114209.557500", "114210.557500", "114211.557500", "114212.557500", "114213.557500", "114214.557500", "114215.557500", "114216.557500", "114217.557500", "114218.557500", "114219.557500", "114220.557500", "114221.557500", "114222.557500", "114223.557500", "114224.557500", "114225.557500", "114226.557500", "114227.557500", "114228.557500", "114229.557500", "114230.557500", "114231.557500", "114232.557500", "114233.557500", "114234.557500", "114235.557500", "114236.557500", "114237.557500", "114238.557500", "114239.557500", "114240.557500", "114241.557500", "114242.557500", "114243.557500", "114244.557500", "114245.557500", "114246.557500", "114247.557500", "114248.557500", "114249.557500", "114250.557500", "114251.557500", "114252.557500", "114253.557500", "114254.557500", "114255.557500", "114256.557500", "114257.557500", "114258.557500", "114259.557500", "114300.557500", "114301.557500", "114302.557500", "114303.557500", "114304.557500", "114305.557500", "114306.557500", "114307.557500", "114308.557500", "114309.557500", "114310.557500", "114311.557500", "114312.557500", "114313.557500", "114314.557500", "114315.557500", "114316.557500", "114317.557500", "114318.557500", "114319.557500", "114320.557500", "114321.557500", "114322.557500", "114323.557500", "114324.557500", "114325.557500", "114326.557500", "114327.557500", "114328.557500", "114329.557500", "114330.557500", "114331.557500", "114332.557500", "114333.557500", "114334.557500", "114335.557500", "114336.557500", "114337.557500", "114338.557500", "114339.557500", "114340.557500", "114341.557500", "114342.557500", "114343.557500", "114344.557500", "114345.557500", "114346.557500", "114347.557500", "114348.557500", "114349.557500", "114350.557500", "114351.557500", "114352.557500", "114353.557500", "114354.557500", "114355.557500", "114356.557500", "114357.557500", "114358.557500", "114359.557500", "114400.557500", "114401.557500", "114402.557500", "114403.557500", "114404.557500", "114405.557500", "114406.557500", "114407.557500", "114408.557500", "114409.557500", "114410.557500", "114411.557500", "114412.557500", "114413.557500", "114414.557500", "114415.557500", "114416.557500", "114417.557500", "114418.557500", "114419.557500", "114420.557500", "114421.557500", "114422.557500", "114423.557500", "114424.557500", "114425.557500", "114426.557500", "114427.557500", "114428.557500", "114429.557500", "114430.557500", "114431.557500", "114432.557500", "114433.557500", "114434.557500", "114435.557500", "114436.557500", "114437.557500", "114438.557500", "114439.557500", "114440.557500", "114441.557500", "114442.557500", "114443.557500", "114444.557500", "114445.557500", "114446.557500", "114447.557500", "114448.557500", "114449.557500", "114450.557500", "114451.557500", "114452.557500", "114453.557500", "114454.557500", "114455.557500", "114456.557500", "114457.557500", "114458.557500", "114459.557500", "114500.557500", "114501.557500", "114502.557500", "114503.557500", "114504.557500", "114505.557500", "114506.557500", "114507.557500", "114508.557500", "114509.557500", "114510.557500", "114511.557500", "114512.557500", "114513.557500", "114514.557500", "114515.557500", "114516.557500", "114517.557500", "114518.557500", "114519.557500", "114520.557500", "114521.557500", "114522.557500", "114523.557500", "114524.557500", "114525.557500", "114526.557500", "114527.557500", "114528.557500", "114529.557500", "114530.557500", "114531.557500", "114532.557500", "114533.557500", "114534.557500", "114535.557500", "114536.557500", "114537.557500", "114538.557500", "114539.557500", "114540.557500", "114541.557500", "114542.557500", "114543.557500"],
      "ContentTime": ["114241.808000", "114241.815000", "114241.818000", "114241.821000", "114241.824000", "114241.827000", "114241.830000", "114241.833000", "114241.836000", "114241.839000", "114241.842000", "114241.845000", "114241.849000", "114241.852000", "114241.855000", "114241.858000", "114241.861000", "114241.864000", "114241.867000", "114241.869000", "114241.873000", "114241.876000", "114241.878000", "114241.881000", "114241.885000", "114241.887000", "114241.891000", "114241.894000", "114241.897000", "114241.900000", "114241.903000", "114241.906000", "114241.916000", "114241.919000", "114241.922000", "114241.925000", "114301.776000", "114301.779000", "114301.801000", "114301.804000", "114301.807000", "114301.810000", "114301.813000", "114301.816000", "114301.819000", "114301.822000", "114301.825000", "114301.828000", "114301.846000", "114301.857000", "114301.860000", "114301.863000", "114301.866000", "114301.869000", "114301.872000", "114301.875000", "114301.878000", "114301.881000", "114301.884000", "114301.887000", "114301.890000", "114301.893000", "114301.896000", "114301.899000", "114301.902000", "114321.776000", "114321.779000", "114321.782000", "114321.785000", "114321.788000", "114321.791000", "114321.794000", "114321.797000", "114321.800000", "114321.804000", "114321.807000", "114321.810000", "114321.813000", "114321.816000", "114321.819000", "114321.822000", "114321.825000", "114321.828000", "114321.831000", "114321.834000", "114321.837000", "114321.840000", "114321.846000", "114321.849000", "114321.852000", "114321.855000", "114321.858000", "114321.861000", "114341.776000", "114341.779000", "114341.782000", "114341.785000", "114341.788000", "114341.791000", "114341.794000", "114341.797000", "114341.801000", "114341.803000", "114341.806000", "114341.809000", "114341.813000", "114341.816000", "114341.819000", "114341.822000", "114341.825000", "114341.828000", "114341.831000", "114341.834000", "114341.837000", "114341.840000", "114341.843000", "114341.846000", "114341.849000", "114341.852000", "114341.855000", "114341.858000", "114401.776000", "114401.779000", "114401.782000", "114401.785000", "114401.788000", "114401.791000", "114401.794000", "114401.797000", "114401.800000", "114401.803000", "114401.806000", "114401.809000", "114401.812000", "114401.815000", "114401.818000", "114401.821000", "114401.825000", "114401.827000", "114401.830000", "114401.833000", "114401.836000", "114401.839000", "114401.842000", "114401.845000", "114401.849000", "114401.851000", "114401.854000", "114401.857000", "114421.776000", "114421.779000", "114421.782000", "114421.785000", "114421.788000", "114421.791000", "114421.794000", "114421.798000", "114421.801000", "114421.804000", "114421.807000", "114421.810000", "114421.813000", "114421.816000", "114421.819000", "114421.822000", "114421.825000", "114421.828000", "114421.831000", "114421.834000", "114421.837000", "114421.840000", "114421.844000", "114421.847000", "114421.850000", "114421.853000", "114421.856000", "114421.859000", "114441.776000", "114441.779000", "114441.782000", "114441.785000", "114441.788000", "114441.791000", "114441.794000", "114441.797000", "114441.800000", "114441.803000", "114441.807000", "114441.810000", "114441.812000", "114441.815000", "114441.818000", "114441.821000", "114441.824000", "114441.827000", "114441.831000", "114441.833000", "114441.836000", "114441.839000", "114441.842000", "114501.776000", "114501.779000", "114501.782000", "114501.785000", "114501.788000", "114501.791000", "114501.794000", "114501.797000", "114501.800000", "114501.803000", "114501.806000", "114501.809000", "114501.812000", "114501.815000", "114501.818000", "114501.821000", "114501.824000", "114501.827000", "114501.830000", "114501.834000", "114521.776000", "114521.779000", "114521.782000", "114521.854000", "114521.857000", "114521.860000", "114521.862000", "114521.866000", "114521.869000", "114521.872000", "114521.875000", "114521.878000", "114521.881000", "114521.884000", "114521.887000", "114521.900000", "114521.903000", "114521.906000", "114521.908000", "114521.912000", "114541.776000", "114541.779000", "114541.782000", "114541.785000", "114541.788000", "114541.791000", "114541.794000", "114541.797000", "114541.800000", "114541.803000", "114541.806000", "114541.810000", "114541.813000", "114541.816000", "114541.819000", "114541.822000", "114541.825000", "114541.828000", "114541.831000", "114541.834000", "114545.143000", "114545.146000", "114545.149000", "114545.152000"],
      "InstanceCreationTime": ["114241.808000", "114241.815000", "114241.818000", "114241.821000", "114241.824000", "114241.827000", "114241.830000", "114241.833000", "114241.836000", "114241.839000", "114241.842000", "114241.845000", "114241.849000", "114241.852000", "114241.855000", "114241.858000", "114241.861000", "114241.864000", "114241.867000", "114241.869000", "114241.873000", "114241.876000", "114241.878000", "114241.881000", "114241.885000", "114241.887000", "114241.891000", "114241.894000", "114241.897000", "114241.900000", "114241.903000", "114241.906000", "114241.916000", "114241.919000", "114241.922000", "114241.925000", "114301.776000", "114301.779000", "114301.801000", "114301.804000", "114301.807000", "114301.810000", "114301.813000", "114301.816000", "114301.819000", "114301.822000", "114301.825000", "114301.828000", "114301.846000", "114301.857000", "114301.860000", "114301.863000", "114301.866000", "114301.869000", "114301.872000", "114301.875000", "114301.878000", "114301.881000", "114301.884000", "114301.887000", "114301.890000", "114301.893000", "114301.896000", "114301.899000", "114301.902000", "114321.776000", "114321.779000", "114321.782000", "114321.785000", "114321.788000", "114321.791000", "114321.794000", "114321.797000", "114321.800000", "114321.804000", "114321.807000", "114321.810000", "114321.813000", "114321.816000", "114321.819000", "114321.822000", "114321.825000", "114321.828000", "114321.831000", "114321.834000", "114321.837000", "114321.840000", "114321.846000", "114321.849000", "114321.852000", "114321.855000", "114321.858000", "114321.861000", "114341.776000", "114341.779000", "114341.782000", "114341.785000", "114341.788000", "114341.791000", "114341.794000", "114341.797000", "114341.801000", "114341.803000", "114341.806000", "114341.809000", "114341.813000", "114341.816000", "114341.819000", "114341.822000", "114341.825000", "114341.828000", "114341.831000", "114341.834000", "114341.837000", "114341.840000", "114341.843000", "114341.846000", "114341.849000", "114341.852000", "114341.855000", "114341.858000", "114401.776000", "114401.779000", "114401.782000", "114401.785000", "114401.788000", "114401.791000", "114401.794000", "114401.797000", "114401.800000", "114401.803000", "114401.806000", "114401.809000", "114401.812000", "114401.815000", "114401.818000", "114401.821000", "114401.825000", "114401.827000", "114401.830000", "114401.833000", "114401.836000", "114401.839000", "114401.842000", "114401.845000", "114401.849000", "114401.851000", "114401.854000", "114401.857000", "114421.776000", "114421.779000", "114421.782000", "114421.785000", "114421.788000", "114421.791000", "114421.794000", "114421.798000", "114421.801000", "114421.804000", "114421.807000", "114421.810000", "114421.813000", "114421.816000", "114421.819000", "114421.822000", "114421.825000", "114421.828000", "114421.831000", "114421.834000", "114421.837000", "114421.840000", "114421.844000", "114421.847000", "114421.850000", "114421.853000", "114421.856000", "114421.859000", "114441.776000", "114441.779000", "114441.782000", "114441.785000", "114441.788000", "114441.791000", "114441.794000", "114441.797000", "114441.800000", "114441.803000", "114441.807000", "114441.810000", "114441.812000", "114441.815000", "114441.818000", "114441.821000", "114441.824000", "114441.827000", "114441.831000", "114441.833000", "114441.836000", "114441.839000", "114441.842000", "114501.776000", "114501.779000", "114501.782000", "114501.785000", "114501.788000", "114501.791000", "114501.794000", "114501.797000", "114501.800000", "114501.803000", "114501.806000", "114501.809000", "114501.812000", "114501.815000", "114501.818000", "114501.821000", "114501.824000", "114501.827000", "114501.830000", "114501.834000", "114521.776000", "114521.779000", "114521.782000", "114521.854000", "114521.857000", "114521.860000", "114521.862000", "114521.866000", "114521.869000", "114521.872000", "114521.875000", "114521.878000", "114521.881000", "114521.884000", "114521.887000", "114521.900000", "114521.903000", "114521.906000", "114521.908000", "114521.912000", "114541.776000", "114541.779000", "114541.782000", "114541.785000", "114541.788000", "114541.791000", "114541.794000", "114541.797000", "114541.800000", "114541.803000", "114541.806000", "114541.810000", "114541.813000", "114541.816000", "114541.819000", "114541.822000", "114541.825000", "114541.828000", "114541.831000", "114541.834000", "114545.143000", "114545.146000", "114545.149000", "114545.152000"],
      "InstanceNumber": [1, 2, 3, 4, 5, 6, 7, 8, 9, 10, 11, 12, 13, 14, 15, 16, 17, 18, 19, 20, 21, 22, 23, 24, 25, 26, 27, 28, 29, 30, 31, 32, 33, 34, 35, 36, 37, 38, 39, 40, 41, 42, 43, 44, 45, 46, 47, 48, 49, 50, 51, 52, 53, 54, 55, 56, 57, 58, 59, 60, 61, 62, 63, 64, 65, 66, 67, 68, 69, 70, 71, 72, 73, 74, 75, 76, 77, 78, 79, 80, 81, 82, 83, 84, 85, 86, 87, 88, 89, 90, 91, 92, 93, 94, 95, 96, 97, 98, 99, 100, 101, 102, 103, 104, 105, 106, 107, 108, 109, 110, 111, 112, 113, 114, 115, 116, 117, 118, 119, 120, 121, 122, 123, 124, 125, 126, 127, 128, 129, 130, 131, 132, 133, 134, 135, 136, 137, 138, 139, 140, 141, 142, 143, 144, 145, 146, 147, 148, 149, 150, 151, 152, 153, 154, 155, 156, 157, 158, 159, 160, 161, 162, 163, 164, 165, 166, 167, 168, 169, 170, 171, 172, 173, 174, 175, 176, 177, 178, 179, 180, 181, 182, 183, 184, 185, 186, 187, 188, 189, 190, 191, 192, 193, 194, 195, 196, 197, 198, 199, 200, 201, 202, 203, 204, 205, 206, 207, 208, 209, 210, 211, 212, 213, 214, 215, 216, 217, 218, 219, 220, 221, 222, 223, 224, 225, 226, 227, 228, 229, 230, 231, 232, 233, 234, 235, 236, 237, 238, 239, 240, 241, 242, 243, 244, 245, 246, 247, 248, 249, 250, 251, 252, 253, 254, 255, 256, 257, 258, 259, 260, 261, 262, 263, 264],
      "LargestImagePixelValue": [33072, 31684, 31641, 30646, 30684, 30618, 30374, 30170, 30476, 30188, 30158, 30094, 30633, 29982, 29938, 30023, 29926, 30317, 30185, 29993, 30288, 30356, 30237, 29763, 29790, 29930, 30299, 29973, 30157, 30277, 30103, 29900, 30078, 30284, 30112, 29856, 30121, 30393, 30127, 29855, 29992, 30202, 31766, 29722, 29822, 29528, 29814, 29818, 29904, 29603, 29788, 29983, 30112, 30066, 30097, 30671, 30276, 30282, 29908, 29978, 30444, 30936, 30861, 30232, 30054, 30453, 30790, 29978, 30079, 30315, 30515, 30471, 30664, 30597, 31365, 30687, 30461, 30279, 31098, 30420, 30439, 29956, 30717, 30774, 30008, 30255, 30666, 30250, 29668, 30290, 30999, 31129, 30427, 31128, 30645, 30340, 30718, 30660, 30557, 30946, 31207, 31298, 30633, 30486, 30569, 30620, 29862, 29939, 30226, 29881, 29963, 29963, 29839, 30751, 30582, 30409, 30653, 30058, 30062, 30212, 30339, 30142, 29992, 29842, 30493, 30178, 30337, 30255, 30197, 30190, 30329, 31583, 32852, 29704, 30103, 30353, 30209, 30184, 30358, 30487, 30251, 30001, 29966, 30386, 30541, 30530, 29945, 30431, 30347, 30011, 29944, 29944, 31866, 29787, 31266, 30331, 30483, 30222, 30024, 30425, 30124, 29913, 30778, 31257, 30934, 30073, 30333, 30023, 30262, 30148, 30130, 30465, 29891, 32673, 30517, 30798, 30682, 30703, 30576, 30425, 30513, 32774, 30569, 30748, 31031, 29995, 32678, 30242, 30159, 30504, 30445, 29946, 30534, 30325, 30463, 30301, 30405, 30589, 30229, 29922, 29967, 30253, 30452, 30170, 30470, 29998, 30106, 30099, 30153, 29958, 30592, 30585, 30243, 29920, 29863, 30522, 30277, 30396, 30316, 30252, 30056, 30252, 32354, 31761, 30721, 33109, 30178, 30314, 30293, 29998, 29735, 29573, 30220, 29639, 29961, 29704, 29775, 29767, 30340, 30335, 31668, 30542, 29882, 30129, 32088, 30665, 30460, 29907, 34461, 30222, 29902, 30207, 30256, 30348, 30428, 30256, 30273, 30049, 30557, 30159, 30089, 30142, 30041, 30371],
      "WindowCenter": [9141.0, 9088.0, 9073.0, 9042.0, 9022.0, 8993.0, 8966.0, 8954.0, 8953.0, 8956.0, 8965.0, 8974.0, 8979.0, 8974.0, 8982.0, 8984.0, 8994.0, 9010.0, 9012.0, 9023.0, 9038.0, 9048.0, 9045.0, 9045.0, 9046.0, 9054.0, 9061.0, 9057.0, 9061.0, 9088.0, 9093.0, 9095.0, 9102.0, 9093.0, 9084.0, 9066.0, 9054.0, 9048.0, 9025.0, 9024.0, 9032.0, 9032.0, 9064.0, 9033.0, 9036.0, 9030.0, 9036.0, 9043.0, 9045.0, 9046.0, 9045.0, 9053.0, 9062.0, 9071.0, 9071.0, 9083.0, 9070.0, 9067.0, 9038.0, 9034.0, 9038.0, 9051.0, 9043.0, 9031.0, 9014.0, 9020.0, 9033.0, 9028.0, 9040.0, 9063.0, 9083.0, 9086.0, 9084.0, 9069.0, 9062.0, 9046.0, 9040.0, 9046.0, 9052.0, 9038.0, 9030.0, 9007.0, 9009.0, 9007.0, 9004.0, 9019.0, 9034.0, 9037.0, 9007.0, 9019.0, 9027.0, 9032.0, 9039.0, 9062.0, 9055.0, 9032.0, 9030.0, 9019.0, 9001.0, 9004.0, 9008.0, 9017.0, 9021.0, 9026.0, 9052.0, 9071.0, 9055.0, 9055.0, 9053.0, 9045.0, 9043.0, 9027.0, 9010.0, 9019.0, 9011.0, 9012.0, 9034.0, 9029.0, 9038.0, 9032.0, 9028.0, 9014.0, 9014.0, 8998.0, 9008.0, 9001.0, 9003.0, 9020.0, 9022.0, 9025.0, 9029.0, 9060.0, 9094.0, 9035.0, 9050.0, 9067.0, 9063.0, 9071.0, 9063.0, 9045.0, 9025.0, 9002.0, 9003.0, 9012.0, 9010.0, 9011.0, 9006.0, 9013.0, 9013.0, 9007.0, 9009.0, 9004.0, 9028.0, 8981.0, 9022.0, 9010.0, 9009.0, 9029.0, 9044.0, 9068.0, 9081.0, 9078.0, 9094.0, 9097.0, 9064.0, 9028.0, 9040.0, 9040.0, 9059.0, 9072.0, 9065.0, 9062.0, 9038.0, 9063.0, 9005.0, 9007.0, 9007.0, 9015.0, 9017.0, 9010.0, 9010.0, 9049.0, 9018.0, 9025.0, 9023.0, 9013.0, 9049.0, 9018.0, 9015.0, 9029.0, 9046.0, 9050.0, 9052.0, 9049.0, 9042.0, 9030.0, 9013.0, 9009.0, 8985.0, 8991.0, 8983.0, 8989.0, 8977.0, 8987.0, 9010.0, 9005.0, 8996.0, 8994.0, 8993.0, 8985.0, 8981.0, 8971.0, 8953.0, 8926.0, 8917.0, 8930.0, 8934.0, 8956.0, 8968.0, 8980.0, 8976.0, 8991.0, 9015.0, 9011.0, 9000.0, 9038.0, 8983.0, 9006.0, 9008.0, 9018.0, 9032.0, 9050.0, 9074.0, 9060.0, 9060.0, 9054.0, 9049.0, 9042.0, 9060.0, 9050.0, 9067.0, 9023.0, 9008.0, 9021.0, 9063.0, 9039.0, 9041.0, 9022.0, 9113.0, 9035.0, 9035.0, 9042.0, 9047.0, 9041.0, 9039.0, 9020.0, 9010.0, 9002.0, 9002.0, 9004.0, 9011.0, 9021.0, 9024.0, 9038.0],
      "WindowWidth": [19452.0, 19324.0, 19277.0, 19217.0, 19169.0, 19104.0, 19044.0, 19019.0, 19015.0, 19030.0, 19047.0, 19065.0, 19071.0, 19064.0, 19080.0, 19086.0, 19109.0, 19140.0, 19148.0, 19173.0, 19200.0, 19223.0, 19224.0, 19225.0, 19229.0, 19243.0, 19255.0, 19253.0, 19256.0, 19313.0, 19328.0, 19336.0, 19347.0, 19328.0, 19308.0, 19269.0, 19240.0, 19225.0, 19176.0, 19174.0, 19190.0, 19192.0, 19244.0, 19195.0, 19204.0, 19196.0, 19206.0, 19219.0, 19226.0, 19230.0, 19230.0, 19243.0, 19263.0, 19282.0, 19283.0, 19297.0, 19275.0, 19264.0, 19211.0, 19199.0, 19202.0, 19227.0, 19209.0, 19191.0, 19155.0, 19163.0, 19185.0, 19180.0, 19215.0, 19252.0, 19299.0, 19307.0, 19302.0, 19275.0, 19252.0, 19219.0, 19208.0, 19219.0, 19225.0, 19203.0, 19186.0, 19141.0, 19137.0, 19131.0, 19134.0, 19163.0, 19190.0, 19202.0, 19145.0, 19160.0, 19172.0, 19180.0, 19201.0, 19244.0, 19233.0, 19193.0, 19181.0, 19158.0, 19123.0, 19120.0, 19123.0, 19145.0, 19162.0, 19176.0, 19228.0, 19274.0, 19248.0, 19248.0, 19242.0, 19226.0, 19219.0, 19188.0, 19152.0, 19161.0, 19143.0, 19146.0, 19186.0, 19183.0, 19198.0, 19192.0, 19179.0, 19154.0, 19157.0, 19121.0, 19132.0, 19118.0, 19125.0, 19162.0, 19175.0, 19188.0, 19184.0, 19253.0, 19308.0, 19203.0, 19228.0, 19267.0, 19264.0, 19275.0, 19260.0, 19222.0, 19177.0, 19126.0, 19126.0, 19143.0, 19139.0, 19142.0, 19136.0, 19151.0, 19153.0, 19147.0, 19154.0, 19137.0, 19172.0, 19093.0, 19166.0, 19146.0, 19138.0, 19182.0, 19223.0, 19268.0, 19300.0, 19298.0, 19335.0, 19333.0, 19267.0, 19186.0, 19206.0, 19206.0, 19246.0, 19278.0, 19264.0, 19253.0, 19208.0, 19240.0, 19131.0, 19128.0, 19128.0, 19145.0, 19151.0, 19143.0, 19141.0, 19208.0, 19159.0, 19169.0, 19164.0, 19149.0, 19207.0, 19162.0, 19157.0, 19178.0, 19216.0, 19227.0, 19238.0, 19229.0, 19212.0, 19184.0, 19147.0, 19133.0, 19089.0, 19102.0, 19084.0, 19097.0, 19069.0, 19092.0, 19138.0, 19133.0, 19109.0, 19105.0, 19103.0, 19088.0, 19076.0, 19053.0, 19014.0, 18960.0, 18943.0, 18966.0, 18981.0, 19021.0, 19050.0, 19075.0, 19071.0, 19101.0, 19138.0, 19143.0, 19127.0, 19189.0, 19085.0, 19129.0, 19135.0, 19157.0, 19195.0, 19242.0, 19289.0, 19263.0, 19262.0, 19251.0, 19235.0, 19223.0, 19248.0, 19226.0, 19249.0, 19167.0, 19140.0, 19162.0, 19237.0, 19201.0, 19208.0, 19176.0, 19334.0, 19197.0, 19199.0, 19208.0, 19213.0, 19202.0, 19197.0, 19155.0, 19134.0, 19117.0, 19120.0, 19127.0, 19141.0, 19162.0, 19172.0, 19199.0]
    },
    "slices": {}
  },
  "NumberOfVolumes": 264
}