{
  "AcquisitionMatrixPE": 104,
  "AcquisitionNumber": 1,
  "AcquisitionTime": "14:34:9.550000",
  "BandwidthPerPixelPhaseEncode": 16.578,
  "BaseResolution": 104,
  "BodyPartExamined": "BRAIN",
  "ConsistencyInfo": "N4_VE11C_LATEST_20160120",
  "ConversionSoftware": "dcm2niix",
  "ConversionSoftwareVersion": "v1.0.20190410  GCC6.3.0",
  "DerivedVendorReportedEchoSpacing": 0.000580009,
  "DeviceSerialNumber": "166018",
  "DwellTime": 2.1e-06,
  "EchoTime": 0.037,
  "EchoTrainLength": 104,
  "EffectiveEchoSpacing": 0.000580009,
  "FlipAngle": 68,
  "ImageComments": "Unaliased_MB6_PE3_LB",
  "ImageOrientationPatientDICOM": [0.999634, -0.0188691, 0.0193913, 0.0235577, 0.959487, -0.280768],
  "ImageType": [
    "ORIGINAL",
    "PRIMARY",
    "M",
    "MB",
    "ND",
    "MOSAIC"
],
  "ImagingFrequency": 123.191,
  "InPlanePhaseEncodingDirectionDICOM": "COL",
  "InstitutionAddress": "Washington_Place_6_NYC_NYC_US_10003",
  "InstitutionName": "NYU_Center_for_Brain_Imaging",
  "InstitutionalDepartmentName": "Department",
  "MRAcquisitionType": "2D",
  "MagneticFieldStrength": 3,
  "Manufacturer": "Siemens",
  "ManufacturersModelName": "Prisma",
  "Modality": "MR",
  "MultibandAccelerationFactor": 6,
  "PartialFourier": 1,
  "PatientPosition": "HFS",
  "PercentPhaseFOV": 100,
  "PhaseEncodingDirection": "j",
  "PhaseEncodingSteps": 104,
  "PhaseResolution": 1,
  "PixelBandwidth": 2290,
  "ProcedureStepDescription": "Investigators_Winawer",
  "ProtocolName": "task-sfprescaled_cmrr_mbepi_s6_2mm_66sl_PA_TR1.0",
  "PulseSequenceDetails": "%CustomerSeq%_cmrr_mbep2d_bold",
  "ReceiveCoilActiveElements": "HC1-7",
  "ReceiveCoilName": "HeadNeck_64",
  "ReconMatrixPE": 104,
  "RepetitionTime": 1,
  "SAR": 0.0564105,
  "ScanOptions": "FS",
  "ScanningSequence": "EP",
  "SequenceName": "epfid2d1_104",
  "SequenceVariant": "SK_SS",
  "SeriesDescription": "task-sfprescaled_cmrr_mbepi_s6_2mm_66sl_PA_TR1.0",
  "SeriesNumber": 28,
  "ShimSetting": [232, -12605, -8478, 466, -34, 92, -173, 55],
  "SliceThickness": 2,
  "SliceTiming": [0, 0.5325, 0.0875, 0.6225, 0.1775, 0.7125, 0.265, 0.8, 0.355, 0.89, 0.445, 0, 0.5325, 0.0875, 0.6225, 0.1775, 0.7125, 0.265, 0.8, 0.355, 0.89, 0.445, 0, 0.5325, 0.0875, 0.6225, 0.1775, 0.7125, 0.265, 0.8, 0.355, 0.89, 0.445, 0, 0.5325, 0.0875, 0.6225, 0.1775, 0.7125, 0.265, 0.8, 0.355, 0.89, 0.445, 0, 0.5325, 0.0875, 0.6225, 0.1775, 0.7125, 0.265, 0.8, 0.355, 0.89, 0.445, 0, 0.5325, 0.0875, 0.6225, 0.1775, 0.7125, 0.265, 0.8, 0.355, 0.89, 0.445],
  "SoftwareVersions": "syngo_MR_E11",
  "SpacingBetweenSlices": 2,
  "StationName": "AWP166018",
  "TaskName": "sfprescaled",
  "TotalReadoutTime": 0.0597409,
  "TxRefAmp": 209.628,
  "WipMemBlock": "ce706ca7-c0e3-4c80-920e-365af659f99b||Sequence: R016 ve11c/master r/8780670; Nov 27 2017 15:05:12 by eja",
  "dcmmeta_affine": [
    [-1.999267816543579, 0.04711548238992691, 0.026615776121616364, 107.22503662109375],
    [0.03773821145296097, 1.9189730882644653, -0.5622437596321106, -71.80593872070312],
    [0.038782671093940735, 0.5615357160568237, 1.9191596508026123, -70.48042297363281],
    [0.0, 0.0, 0.0, 1.0]
],
  "dcmmeta_reorient_transform": [
    [0.0, -1.0, 0.0, 103.0],
    [1.0, 0.0, 0.0, 0.0],
    [0.0, 0.0, 1.0, 0.0],
    [0.0, 0.0, 0.0, 1.0]
],
  "dcmmeta_shape": [104, 104, 66, 264],
  "dcmmeta_slice_dim": 2,
  "dcmmeta_version": 0.6,
  "global": {
    "const": {
      "AccessionNumber": "juLLg1bg",
  "NumberOfVolumes": 264,
      "AcquisitionMatrix": [104, 0, 0, 104],
      "AngioFlag": "N",
      "BitsAllocated": 16,
      "BitsStored": 16,
      "BodyPartExamined": "BRAIN",
      "Columns": 936,
      "EchoNumbers": 1,
      "EchoTime": 37.0,
      "EchoTrainLength": 104,
      "FlipAngle": 68.0,
      "HighBit": 15,
      "ImageOrientationPatient": [0.99963389946681, -0.0188691054203, 0.01939133562749, 0.02355774109317, 0.95948655306514, -0.2807678530775],
      "ImagePositionPatient": [-963.37337831453, -908.44201127205, 204.82301902709],
      "ImageType": [
        "ORIGINAL",
        "PRIMARY",
        "M",
        "MB",
        "ND",
        "MOSAIC"
],
      "ImagedNucleus": "1H",
      "ImagingFrequency": 123.190861,
      "InPlanePhaseEncodingDirection": "COL",
      "MRAcquisitionType": "2D",
      "MagneticFieldStrength": 3.0,
      "Manufacturer": "SIEMENS",
      "ManufacturerModelName": "Prisma",
      "Modality": "MR",
      "NumberOfAverages": 1.0,
      "NumberOfPhaseEncodingSteps": 104,
      "PercentPhaseFieldOfView": 100.0,
      "PercentSampling": 100.0,
      "PerformedProcedureStepStartTime": "133436.477000",
      "PhotometricInterpretation": "MONOCHROME2",
      "PixelBandwidth": 2290.0,
      "PixelRepresentation": 0,
      "PixelSpacing": [2.0, 2.0],
      "ProtocolName": "task-sfprescaled_cmrr_mbepi_s6_2mm_66sl_PA_TR1.0",
      "RepetitionTime": 1000.0,
      "Rows": 936,
      "SAR": 0.05641051860443,
      "SamplesPerPixel": 1,
      "ScanOptions": "FS",
      "ScanningSequence": "EP",
      "SequenceName": "epfid2d1_104",
      "SequenceVariant": [
        "SK",
        "SS"
],
      "SeriesDescription": "task-sfprescaled_cmrr_mbepi_s6_2mm_66sl_PA_TR1.0",
      "SeriesNumber": 28,
      "SeriesTime": "143505.348000",
      "SliceLocation": -46.01843014342,
      "SliceThickness": 2.0,
      "SmallestImagePixelValue": 0,
      "SoftwareVersions": "syngo MR E11",
      "SpacingBetweenSlices": 2.0000000409259,
      "SpecificCharacterSet": "ISO_IR 100",
      "StudyID": "2",
      "StudyTime": "133436.380000",
      "TransmitCoilName": "Body",
      "VariableFlipAngleFlag": "N",
      "WindowCenterWidthExplanation": "Algo1",
      "dBdt": 0.0},
    "slices": {}
  },
  "time": {
    "samples": {
      "AcquisitionNumber": [1, 2, 3, 4, 5, 6, 7, 8, 9, 10, 11, 12, 13, 14, 15, 16, 17, 18, 19, 20, 21, 22, 23, 24, 25, 26, 27, 28, 29, 30, 31, 32, 33, 34, 35, 36, 37, 38, 39, 40, 41, 42, 43, 44, 45, 46, 47, 48, 49, 50, 51, 52, 53, 54, 55, 56, 57, 58, 59, 60, 61, 62, 63, 64, 65, 66, 67, 68, 69, 70, 71, 72, 73, 74, 75, 76, 77, 78, 79, 80, 81, 82, 83, 84, 85, 86, 87, 88, 89, 90, 91, 92, 93, 94, 95, 96, 97, 98, 99, 100, 101, 102, 103, 104, 105, 106, 107, 108, 109, 110, 111, 112, 113, 114, 115, 116, 117, 118, 119, 120, 121, 122, 123, 124, 125, 126, 127, 128, 129, 130, 131, 132, 133, 134, 135, 136, 137, 138, 139, 140, 141, 142, 143, 144, 145, 146, 147, 148, 149, 150, 151, 152, 153, 154, 155, 156, 157, 158, 159, 160, 161, 162, 163, 164, 165, 166, 167, 168, 169, 170, 171, 172, 173, 174, 175, 176, 177, 178, 179, 180, 181, 182, 183, 184, 185, 186, 187, 188, 189, 190, 191, 192, 193, 194, 195, 196, 197, 198, 199, 200, 201, 202, 203, 204, 205, 206, 207, 208, 209, 210, 211, 212, 213, 214, 215, 216, 217, 218, 219, 220, 221, 222, 223, 224, 225, 226, 227, 228, 229, 230, 231, 232, 233, 234, 235, 236, 237, 238, 239, 240, 241, 242, 243, 244, 245, 246, 247, 248, 249, 250, 251, 252, 253, 254, 255, 256, 257, 258, 259, 260, 261, 262, 263, 264],
      "AcquisitionTime": ["143409.550000", "143410.550000", "143411.550000", "143412.550000", "143413.550000", "143414.550000", "143415.550000", "143416.550000", "143417.550000", "143418.550000", "143419.550000", "143420.550000", "143421.550000", "143422.550000", "143423.550000", "143424.550000", "143425.550000", "143426.550000", "143427.550000", "143428.550000", "143429.550000", "143430.550000", "143431.550000", "143432.550000", "143433.550000", "143434.550000", "143435.550000", "143436.550000", "143437.550000", "143438.550000", "143439.550000", "143440.550000", "143441.550000", "143442.550000", "143443.550000", "143444.550000", "143445.550000", "143446.550000", "143447.550000", "143448.550000", "143449.550000", "143450.550000", "143451.550000", "143452.550000", "143453.550000", "143454.550000", "143455.550000", "143456.550000", "143457.550000", "143458.550000", "143459.550000", "143500.550000", "143501.550000", "143502.550000", "143503.550000", "143504.550000", "143505.550000", "143506.550000", "143507.550000", "143508.550000", "143509.550000", "143510.550000", "143511.550000", "143512.550000", "143513.550000", "143514.550000", "143515.550000", "143516.550000", "143517.550000", "143518.550000", "143519.550000", "143520.550000", "143521.550000", "143522.550000", "143523.550000", "143524.550000", "143525.550000", "143526.550000", "143527.550000", "143528.550000", "143529.550000", "143530.550000", "143531.550000", "143532.550000", "143533.550000", "143534.550000", "143535.550000", "143536.550000", "143537.550000", "143538.550000", "143539.550000", "143540.550000", "143541.550000", "143542.550000", "143543.550000", "143544.550000", "143545.550000", "143546.550000", "143547.550000", "143548.550000", "143549.550000", "143550.550000", "143551.550000", "143552.550000", "143553.550000", "143554.550000", "143555.550000", "143556.550000", "143557.550000", "143558.550000", "143559.550000", "143600.550000", "143601.550000", "143602.550000", "143603.550000", "143604.550000", "143605.550000", "143606.550000", "143607.550000", "143608.550000", "143609.550000", "143610.550000", "143611.550000", "143612.550000", "143613.550000", "143614.550000", "143615.550000", "143616.550000", "143617.550000", "143618.550000", "143619.550000", "143620.550000", "143621.550000", "143622.550000", "143623.550000", "143624.550000", "143625.550000", "143626.550000", "143627.550000", "143628.550000", "143629.550000", "143630.550000", "143631.550000", "143632.550000", "143633.550000", "143634.550000", "143635.550000", "143636.550000", "143637.550000", "143638.550000", "143639.550000", "143640.550000", "143641.550000", "143642.550000", "143643.550000", "143644.550000", "143645.550000", "143646.550000", "143647.550000", "143648.550000", "143649.550000", "143650.550000", "143651.550000", "143652.550000", "143653.550000", "143654.550000", "143655.550000", "143656.550000", "143657.550000", "143658.550000", "143659.550000", "143700.550000", "143701.550000", "143702.550000", "143703.550000", "143704.550000", "143705.550000", "143706.550000", "143707.550000", "143708.550000", "143709.550000", "143710.550000", "143711.550000", "143712.550000", "143713.550000", "143714.550000", "143715.550000", "143716.550000", "143717.550000", "143718.550000", "143719.550000", "143720.550000", "143721.550000", "143722.550000", "143723.550000", "143724.550000", "143725.550000", "143726.550000", "143727.550000", "143728.550000", "143729.550000", "143730.550000", "143731.550000", "143732.550000", "143733.550000", "143734.550000", "143735.550000", "143736.550000", "143737.550000", "143738.550000", "143739.550000", "143740.550000", "143741.550000", "143742.550000", "143743.550000", "143744.550000", "143745.550000", "143746.550000", "143747.550000", "143748.550000", "143749.550000", "143750.550000", "143751.550000", "143752.550000", "143753.550000", "143754.550000", "143755.550000", "143756.550000", "143757.550000", "143758.550000", "143759.550000", "143800.550000", "143801.550000", "143802.550000", "143803.550000", "143804.550000", "143805.550000", "143806.550000", "143807.550000", "143808.550000", "143809.550000", "143810.550000", "143811.550000", "143812.550000", "143813.550000", "143814.550000", "143815.550000", "143816.550000", "143817.550000", "143818.550000", "143819.550000", "143820.550000", "143821.550000", "143822.550000", "143823.550000", "143824.550000", "143825.550000", "143826.550000", "143827.550000", "143828.550000", "143829.550000", "143830.550000", "143831.550000", "143832.550000"],
      "ContentTime": ["143505.351000", "143505.358000", "143505.361000", "143505.364000", "143505.367000", "143505.370000", "143505.373000", "143505.376000", "143510.348000", "143510.351000", "143510.354000", "143510.358000", "143510.361000", "143510.364000", "143515.348000", "143515.354000", "143515.357000", "143515.360000", "143515.363000", "143515.366000", "143515.368000", "143515.371000", "143520.349000", "143520.356000", "143520.358000", "143520.361000", "143520.367000", "143520.370000", "143520.373000", "143525.349000", "143525.352000", "143525.355000", "143525.358000", "143525.361000", "143525.364000", "143525.367000", "143530.348000", "143530.351000", "143530.354000", "143530.357000", "143530.360000", "143530.363000", "143530.366000", "143535.348000", "143535.351000", "143535.354000", "143535.357000", "143535.360000", "143535.375000", "143535.378000", "143540.349000", "143540.352000", "143540.355000", "143540.365000", "143540.368000", "143540.371000", "143540.374000", "143545.348000", "143545.351000", "143545.354000", "143545.357000", "143545.360000", "143545.363000", "143545.366000", "143550.348000", "143550.351000", "143550.354000", "143550.357000", "143550.360000", "143550.363000", "143550.366000", "143555.349000", "143555.352000", "143555.355000", "143555.358000", "143555.361000", "143555.364000", "143555.367000", "143600.349000", "143600.352000", "143600.355000", "143600.358000", "143600.361000", "143600.364000", "143600.367000", "143605.348000", "143605.351000", "143605.354000", "143605.357000", "143605.360000", "143605.363000", "143605.366000", "143610.348000", "143610.351000", "143610.354000", "143610.357000", "143610.360000", "143610.363000", "143610.366000", "143615.349000", "143615.352000", "143615.355000", "143615.358000", "143615.361000", "143615.364000", "143615.367000", "143620.348000", "143620.351000", "143620.354000", "143620.357000", "143620.361000", "143620.364000", "143620.367000", "143625.348000", "143625.351000", "143625.354000", "143625.357000", "143625.360000", "143625.364000", "143625.367000", "143630.349000", "143630.352000", "143630.355000", "143630.358000", "143630.361000", "143630.364000", "143630.367000", "143630.370000", "143635.349000", "143635.352000", "143635.355000", "143635.358000", "143635.361000", "143635.364000", "143635.367000", "143640.348000", "143640.351000", "143640.354000", "143640.357000", "143640.360000", "143640.363000", "143640.366000", "143645.348000", "143645.351000", "143645.354000", "143645.357000", "143645.360000", "143645.363000", "143645.366000", "143650.349000", "143650.352000", "143650.355000", "143650.358000", "143650.361000", "143650.364000", "143650.367000", "143655.348000", "143655.351000", "143655.354000", "143655.357000", "143655.360000", "143655.363000", "143655.366000", "143700.348000", "143700.358000", "143700.361000", "143700.364000", "143700.367000", "143700.370000", "143705.349000", "143705.352000", "143705.355000", "143705.358000", "143705.361000", "143710.349000", "143710.352000", "143710.355000", "143710.358000", "143710.361000", "143715.348000", "143715.351000", "143715.354000", "143715.357000", "143715.360000", "143720.348000", "143720.351000", "143720.354000", "143720.357000", "143720.360000", "143725.349000", "143725.352000", "143725.355000", "143725.358000", "143725.361000", "143730.348000", "143730.351000", "143730.354000", "143730.357000", "143730.360000", "143735.348000", "143735.351000", "143735.354000", "143735.357000", "143735.360000", "143740.349000", "143740.352000", "143740.355000", "143740.358000", "143740.361000", "143745.349000", "143745.352000", "143745.355000", "143745.358000", "143745.361000", "143750.348000", "143750.351000", "143750.354000", "143750.357000", "143750.360000", "143755.348000", "143755.351000", "143755.354000", "143755.357000", "143755.360000", "143800.349000", "143800.352000", "143800.355000", "143800.358000", "143800.361000", "143805.348000", "143805.351000", "143805.354000", "143805.357000", "143805.360000", "143810.348000", "143810.351000", "143810.354000", "143810.357000", "143810.360000", "143815.349000", "143815.352000", "143815.355000", "143815.358000", "143815.361000", "143820.349000", "143820.352000", "143820.355000", "143820.367000", "143820.370000", "143825.348000", "143825.351000", "143825.354000", "143825.357000", "143825.360000", "143830.348000", "143830.351000", "143830.354000", "143830.357000", "143830.360000", "143834.732000", "143834.735000", "143834.738000", "143834.741000", "143834.744000"],
      "InstanceCreationTime": ["143505.351000", "143505.358000", "143505.361000", "143505.364000", "143505.367000", "143505.370000", "143505.373000", "143505.376000", "143510.348000", "143510.351000", "143510.354000", "143510.358000", "143510.361000", "143510.364000", "143515.348000", "143515.354000", "143515.357000", "143515.360000", "143515.363000", "143515.366000", "143515.368000", "143515.371000", "143520.349000", "143520.356000", "143520.358000", "143520.361000", "143520.367000", "143520.370000", "143520.373000", "143525.349000", "143525.352000", "143525.355000", "143525.358000", "143525.361000", "143525.364000", "143525.367000", "143530.348000", "143530.351000", "143530.354000", "143530.357000", "143530.360000", "143530.363000", "143530.366000", "143535.348000", "143535.351000", "143535.354000", "143535.357000", "143535.360000", "143535.375000", "143535.378000", "143540.349000", "143540.352000", "143540.355000", "143540.365000", "143540.368000", "143540.371000", "143540.374000", "143545.348000", "143545.351000", "143545.354000", "143545.357000", "143545.360000", "143545.363000", "143545.366000", "143550.348000", "143550.351000", "143550.354000", "143550.357000", "143550.360000", "143550.363000", "143550.366000", "143555.349000", "143555.352000", "143555.355000", "143555.358000", "143555.361000", "143555.364000", "143555.367000", "143600.349000", "143600.352000", "143600.355000", "143600.358000", "143600.361000", "143600.364000", "143600.367000", "143605.348000", "143605.351000", "143605.354000", "143605.357000", "143605.360000", "143605.363000", "143605.366000", "143610.348000", "143610.351000", "143610.354000", "143610.357000", "143610.360000", "143610.363000", "143610.366000", "143615.349000", "143615.352000", "143615.355000", "143615.358000", "143615.361000", "143615.364000", "143615.367000", "143620.348000", "143620.351000", "143620.354000", "143620.357000", "143620.361000", "143620.364000", "143620.367000", "143625.348000", "143625.351000", "143625.354000", "143625.357000", "143625.360000", "143625.364000", "143625.367000", "143630.349000", "143630.352000", "143630.355000", "143630.358000", "143630.361000", "143630.364000", "143630.367000", "143630.370000", "143635.349000", "143635.352000", "143635.355000", "143635.358000", "143635.361000", "143635.364000", "143635.367000", "143640.348000", "143640.351000", "143640.354000", "143640.357000", "143640.360000", "143640.363000", "143640.366000", "143645.348000", "143645.351000", "143645.354000", "143645.357000", "143645.360000", "143645.363000", "143645.366000", "143650.349000", "143650.352000", "143650.355000", "143650.358000", "143650.361000", "143650.364000", "143650.367000", "143655.348000", "143655.351000", "143655.354000", "143655.357000", "143655.360000", "143655.363000", "143655.366000", "143700.348000", "143700.358000", "143700.361000", "143700.364000", "143700.367000", "143700.370000", "143705.349000", "143705.352000", "143705.355000", "143705.358000", "143705.361000", "143710.349000", "143710.352000", "143710.355000", "143710.358000", "143710.361000", "143715.348000", "143715.351000", "143715.354000", "143715.357000", "143715.360000", "143720.348000", "143720.351000", "143720.354000", "143720.357000", "143720.360000", "143725.349000", "143725.352000", "143725.355000", "143725.358000", "143725.361000", "143730.348000", "143730.351000", "143730.354000", "143730.357000", "143730.360000", "143735.348000", "143735.351000", "143735.354000", "143735.357000", "143735.360000", "143740.349000", "143740.352000", "143740.355000", "143740.358000", "143740.361000", "143745.349000", "143745.352000", "143745.355000", "143745.358000", "143745.361000", "143750.348000", "143750.351000", "143750.354000", "143750.357000", "143750.360000", "143755.348000", "143755.351000", "143755.354000", "143755.357000", "143755.360000", "143800.349000", "143800.352000", "143800.355000", "143800.358000", "143800.361000", "143805.348000", "143805.351000", "143805.354000", "143805.357000", "143805.360000", "143810.348000", "143810.351000", "143810.354000", "143810.357000", "143810.360000", "143815.349000", "143815.352000", "143815.355000", "143815.358000", "143815.361000", "143820.349000", "143820.352000", "143820.355000", "143820.367000", "143820.370000", "143825.348000", "143825.351000", "143825.354000", "143825.357000", "143825.360000", "143830.348000", "143830.351000", "143830.354000", "143830.357000", "143830.360000", "143834.732000", "143834.735000", "143834.738000", "143834.741000", "143834.744000"],
      "InstanceNumber": [1, 2, 3, 4, 5, 6, 7, 8, 9, 10, 11, 12, 13, 14, 15, 16, 17, 18, 19, 20, 21, 22, 23, 24, 25, 26, 27, 28, 29, 30, 31, 32, 33, 34, 35, 36, 37, 38, 39, 40, 41, 42, 43, 44, 45, 46, 47, 48, 49, 50, 51, 52, 53, 54, 55, 56, 57, 58, 59, 60, 61, 62, 63, 64, 65, 66, 67, 68, 69, 70, 71, 72, 73, 74, 75, 76, 77, 78, 79, 80, 81, 82, 83, 84, 85, 86, 87, 88, 89, 90, 91, 92, 93, 94, 95, 96, 97, 98, 99, 100, 101, 102, 103, 104, 105, 106, 107, 108, 109, 110, 111, 112, 113, 114, 115, 116, 117, 118, 119, 120, 121, 122, 123, 124, 125, 126, 127, 128, 129, 130, 131, 132, 133, 134, 135, 136, 137, 138, 139, 140, 141, 142, 143, 144, 145, 146, 147, 148, 149, 150, 151, 152, 153, 154, 155, 156, 157, 158, 159, 160, 161, 162, 163, 164, 165, 166, 167, 168, 169, 170, 171, 172, 173, 174, 175, 176, 177, 178, 179, 180, 181, 182, 183, 184, 185, 186, 187, 188, 189, 190, 191, 192, 193, 194, 195, 196, 197, 198, 199, 200, 201, 202, 203, 204, 205, 206, 207, 208, 209, 210, 211, 212, 213, 214, 215, 216, 217, 218, 219, 220, 221, 222, 223, 224, 225, 226, 227, 228, 229, 230, 231, 232, 233, 234, 235, 236, 237, 238, 239, 240, 241, 242, 243, 244, 245, 246, 247, 248, 249, 250, 251, 252, 253, 254, 255, 256, 257, 258, 259, 260, 261, 262, 263, 264],
      "LargestImagePixelValue": [32645, 32798, 32707, 31573, 31698, 31438, 31612, 31510, 31338, 31412, 31749, 32007, 31903, 31633, 31617, 31765, 31818, 31737, 32323, 31997, 32193, 32309, 32551, 32432, 32541, 32350, 32572, 32051, 32176, 32269, 32459, 32226, 32818, 31897, 32435, 31782, 32317, 31953, 32163, 32021, 32464, 32370, 32318, 32541, 32496, 32188, 31951, 32407, 32182, 32181, 32487, 32133, 32350, 32282, 32681, 32346, 31926, 32192, 32104, 32096, 32041, 32182, 31867, 31906, 31927, 31786, 31856, 32512, 32045, 31746, 31747, 31765, 31789, 31685, 31641, 32390, 32509, 31865, 31946, 32432, 31993, 32296, 32314, 32064, 32514, 32662, 32428, 32304, 32435, 32072, 31830, 31791, 31811, 31846, 32291, 32161, 32120, 31780, 32074, 32194, 32403, 32174, 32035, 32003, 32365, 32238, 32077, 32631, 32014, 32033, 32116, 32054, 31821, 32102, 32284, 32246, 32591, 32022, 32102, 32221, 32417, 32031, 32364, 32371, 32079, 32203, 32152, 32220, 32115, 31799, 32044, 31920, 31931, 31970, 31771, 31888, 32281, 32283, 32203, 32516, 32306, 32484, 32661, 32679, 32065, 32423, 32307, 31556, 32113, 32223, 31575, 32328, 33632, 31893, 31733, 31786, 31556, 31739, 32351, 32830, 32243, 32418, 32799, 31650, 31423, 32742, 32427, 31910, 32732, 32604, 32099, 32900, 32763, 32273, 32072, 32189, 32308, 31838, 32427, 32575, 32074, 32298, 32517, 32282, 31469, 32293, 32723, 32368, 31830, 32372, 32345, 32351, 32300, 32579, 32064, 32819, 32879, 32527, 32667, 32517, 32238, 32093, 32489, 32436, 32569, 32678, 32466, 32281, 32128, 32233, 32968, 32606, 32565, 33118, 33127, 32863, 32181, 32475, 32220, 32361, 32787, 32024, 32427, 32854, 33128, 32923, 32401, 32962, 33160, 33149, 33330, 32530, 32405, 31929, 32929, 32589, 32592, 32862, 32418, 31958, 32233, 31693, 31466, 32332, 32726, 32452, 32943, 33375, 32081, 32662, 32717, 32646, 32356, 32640, 32529, 32763, 32435, 32787, 32851, 32585, 32639, 32185, 32377, 32414],
      "WindowCenter": [9591.0, 9564.0, 9547.0, 9511.0, 9506.0, 9498.0, 9491.0, 9483.0, 9480.0, 9489.0, 9502.0, 9501.0, 9495.0, 9497.0, 9497.0, 9490.0, 9483.0, 9482.0, 9501.0, 9503.0, 9512.0, 9519.0, 9533.0, 9531.0, 9544.0, 9544.0, 9551.0, 9546.0, 9539.0, 9537.0, 9551.0, 9553.0, 9558.0, 9548.0, 9546.0, 9540.0, 9550.0, 9552.0, 9553.0, 9561.0, 9569.0, 9568.0, 9556.0, 9558.0, 9559.0, 9563.0, 9565.0, 9571.0, 9578.0, 9578.0, 9568.0, 9563.0, 9570.0, 9576.0, 9576.0, 9572.0, 9565.0, 9557.0, 9548.0, 9554.0, 9548.0, 9551.0, 9539.0, 9545.0, 9539.0, 9539.0, 9545.0, 9559.0, 9555.0, 9557.0, 9550.0, 9549.0, 9541.0, 9541.0, 9540.0, 9558.0, 9568.0, 9563.0, 9565.0, 9579.0, 9575.0, 9580.0, 9580.0, 9569.0, 9577.0, 9577.0, 9573.0, 9571.0, 9576.0, 9570.0, 9555.0, 9550.0, 9550.0, 9546.0, 9551.0, 9554.0, 9548.0, 9547.0, 9554.0, 9553.0, 9544.0, 9545.0, 9541.0, 9547.0, 9563.0, 9564.0, 9564.0, 9568.0, 9549.0, 9539.0, 9538.0, 9537.0, 9526.0, 9538.0, 9546.0, 9546.0, 9552.0, 9554.0, 9541.0, 9546.0, 9554.0, 9557.0, 9570.0, 9573.0, 9564.0, 9561.0, 9554.0, 9547.0, 9548.0, 9549.0, 9554.0, 9554.0, 9555.0, 9548.0, 9548.0, 9555.0, 9562.0, 9576.0, 9587.0, 9601.0, 9605.0, 9620.0, 9613.0, 9589.0, 9558.0, 9555.0, 9552.0, 9539.0, 9545.0, 9544.0, 9545.0, 9529.0, 9588.0, 9559.0, 9562.0, 9558.0, 9547.0, 9539.0, 9535.0, 9537.0, 9531.0, 9533.0, 9533.0, 9522.0, 9530.0, 9540.0, 9532.0, 9526.0, 9532.0, 9539.0, 9543.0, 9561.0, 9550.0, 9541.0, 9535.0, 9540.0, 9534.0, 9527.0, 9543.0, 9555.0, 9553.0, 9547.0, 9546.0, 9540.0, 9520.0, 9522.0, 9521.0, 9516.0, 9518.0, 9538.0, 9540.0, 9546.0, 9541.0, 9547.0, 9542.0, 9554.0, 9551.0, 9537.0, 9545.0, 9560.0, 9557.0, 9552.0, 9562.0, 9549.0, 9548.0, 9546.0, 9547.0, 9549.0, 9561.0, 9586.0, 9590.0, 9574.0, 9557.0, 9547.0, 9545.0, 9544.0, 9542.0, 9559.0, 9559.0, 9566.0, 9565.0, 9551.0, 9557.0, 9569.0, 9567.0, 9568.0, 9565.0, 9572.0, 9569.0, 9562.0, 9568.0, 9548.0, 9547.0, 9547.0, 9552.0, 9547.0, 9554.0, 9554.0, 9541.0, 9534.0, 9539.0, 9534.0, 9538.0, 9555.0, 9563.0, 9565.0, 9572.0, 9571.0, 9552.0, 9549.0, 9542.0, 9528.0, 9534.0, 9554.0, 9554.0, 9560.0, 9556.0, 9562.0, 9567.0, 9561.0, 9561.0, 9563.0, 9573.0, 9574.0],
      "WindowWidth": [20513.0, 20442.0, 20399.0, 20321.0, 20305.0, 20284.0, 20270.0, 20252.0, 20245.0, 20268.0, 20293.0, 20289.0, 20277.0, 20283.0, 20284.0, 20270.0, 20255.0, 20255.0, 20292.0, 20303.0, 20322.0, 20336.0, 20366.0, 20368.0, 20392.0, 20394.0, 20411.0, 20402.0, 20385.0, 20379.0, 20409.0, 20414.0, 20423.0, 20402.0, 20397.0, 20383.0, 20401.0, 20409.0, 20411.0, 20431.0, 20453.0, 20446.0, 20422.0, 20421.0, 20428.0, 20439.0, 20444.0, 20460.0, 20473.0, 20469.0, 20445.0, 20439.0, 20451.0, 20460.0, 20463.0, 20462.0, 20443.0, 20423.0, 20406.0, 20417.0, 20404.0, 20403.0, 20382.0, 20393.0, 20381.0, 20383.0, 20397.0, 20422.0, 20419.0, 20426.0, 20411.0, 20405.0, 20385.0, 20383.0, 20381.0, 20421.0, 20442.0, 20436.0, 20446.0, 20475.0, 20469.0, 20481.0, 20480.0, 20458.0, 20470.0, 20473.0, 20464.0, 20455.0, 20461.0, 20446.0, 20411.0, 20407.0, 20409.0, 20394.0, 20406.0, 20414.0, 20398.0, 20398.0, 20413.0, 20408.0, 20391.0, 20392.0, 20387.0, 20402.0, 20442.0, 20443.0, 20442.0, 20444.0, 20403.0, 20381.0, 20379.0, 20375.0, 20356.0, 20381.0, 20398.0, 20395.0, 20406.0, 20415.0, 20390.0, 20400.0, 20417.0, 20426.0, 20453.0, 20460.0, 20438.0, 20428.0, 20414.0, 20397.0, 20402.0, 20407.0, 20415.0, 20418.0, 20422.0, 20404.0, 20405.0, 20420.0, 20433.0, 20464.0, 20495.0, 20523.0, 20538.0, 20571.0, 20554.0, 20494.0, 20427.0, 20417.0, 20405.0, 20384.0, 20395.0, 20391.0, 20398.0, 20350.0, 20491.0, 20429.0, 20440.0, 20430.0, 20404.0, 20385.0, 20370.0, 20366.0, 20357.0, 20366.0, 20362.0, 20346.0, 20363.0, 20377.0, 20360.0, 20349.0, 20362.0, 20377.0, 20393.0, 20426.0, 20403.0, 20381.0, 20367.0, 20375.0, 20363.0, 20353.0, 20390.0, 20412.0, 20415.0, 20395.0, 20389.0, 20379.0, 20337.0, 20334.0, 20332.0, 20326.0, 20337.0, 20375.0, 20381.0, 20397.0, 20387.0, 20395.0, 20391.0, 20412.0, 20399.0, 20367.0, 20389.0, 20423.0, 20419.0, 20414.0, 20430.0, 20403.0, 20400.0, 20392.0, 20394.0, 20401.0, 20435.0, 20494.0, 20495.0, 20459.0, 20421.0, 20394.0, 20388.0, 20388.0, 20393.0, 20430.0, 20435.0, 20449.0, 20440.0, 20411.0, 20420.0, 20442.0, 20432.0, 20434.0, 20435.0, 20450.0, 20440.0, 20429.0, 20436.0, 20395.0, 20392.0, 20392.0, 20400.0, 20394.0, 20411.0, 20408.0, 20384.0, 20372.0, 20380.0, 20371.0, 20384.0, 20415.0, 20430.0, 20438.0, 20453.0, 20451.0, 20414.0, 20407.0, 20388.0, 20357.0, 20373.0, 20403.0, 20401.0, 20415.0, 20408.0, 20420.0, 20430.0, 20418.0, 20416.0, 20429.0, 20452.0, 20452.0]
    },
    "slices": {}
  }
}