{
  "AcquisitionMatrixPE": 104,
  "AcquisitionNumber": 1,
  "AcquisitionTime": "13:53:53.470000",
  "BandwidthPerPixelPhaseEncode": 16.578,
  "BaseResolution": 104,
  "BodyPartExamined": "BRAIN",
  "ConsistencyInfo": "N4_VE11C_LATEST_20160120",
  "ConversionSoftware": "dcm2niix",
  "ConversionSoftwareVersion": "v1.0.20190410  GCC6.3.0",
  "DerivedVendorReportedEchoSpacing": 0.000580009,
  "DeviceSerialNumber": "166018",
  "DwellTime": 2.1e-06,
  "EchoTime": 0.037,
  "EchoTrainLength": 104,
  "EffectiveEchoSpacing": 0.000580009,
  "FlipAngle": 68,
  "ImageComments": "Unaliased_MB6_PE3_LB",
  "ImageOrientationPatientDICOM": [0.999634, -0.0188691, 0.0193913, 0.0235577, 0.959487, -0.280768],
  "ImageType": [
    "ORIGINAL",
    "PRIMARY",
    "M",
    "MB",
    "ND",
    "MOSAIC"
],
  "ImagingFrequency": 123.191,
  "InPlanePhaseEncodingDirectionDICOM": "COL",
  "InstitutionAddress": "Washington_Place_6_NYC_NYC_US_10003",
  "InstitutionName": "NYU_Center_for_Brain_Imaging",
  "InstitutionalDepartmentName": "Department",
  "MRAcquisitionType": "2D",
  "MagneticFieldStrength": 3,
  "Manufacturer": "Siemens",
  "ManufacturersModelName": "Prisma",
  "Modality": "MR",
  "MultibandAccelerationFactor": 6,
  "PartialFourier": 1,
  "PatientPosition": "HFS",
  "PercentPhaseFOV": 100,
  "PhaseEncodingDirection": "j",
  "PhaseEncodingSteps": 104,
  "PhaseResolution": 1,
  "PixelBandwidth": 2290,
  "ProcedureStepDescription": "Investigators_Winawer",
  "ProtocolName": "task-sfprescaled_cmrr_mbepi_s6_2mm_66sl_PA_TR1.0",
  "PulseSequenceDetails": "%CustomerSeq%_cmrr_mbep2d_bold",
  "ReceiveCoilActiveElements": "HC1-7",
  "ReceiveCoilName": "HeadNeck_64",
  "ReconMatrixPE": 104,
  "RepetitionTime": 1,
  "SAR": 0.0564105,
  "ScanOptions": "FS",
  "ScanningSequence": "EP",
  "SequenceName": "epfid2d1_104",
  "SequenceVariant": "SK_SS",
  "SeriesDescription": "task-sfprescaled_cmrr_mbepi_s6_2mm_66sl_PA_TR1.0",
  "SeriesNumber": 12,
  "ShimSetting": [232, -12605, -8478, 466, -34, 92, -173, 55],
  "SliceThickness": 2,
  "SliceTiming": [0, 0.5325, 0.0875, 0.6225, 0.1775, 0.7125, 0.265, 0.8, 0.355, 0.89, 0.445, 0, 0.5325, 0.0875, 0.6225, 0.1775, 0.7125, 0.265, 0.8, 0.355, 0.89, 0.445, 0, 0.5325, 0.0875, 0.6225, 0.1775, 0.7125, 0.265, 0.8, 0.355, 0.89, 0.445, 0, 0.5325, 0.0875, 0.6225, 0.1775, 0.7125, 0.265, 0.8, 0.355, 0.89, 0.445, 0, 0.5325, 0.0875, 0.6225, 0.1775, 0.7125, 0.265, 0.8, 0.355, 0.89, 0.445, 0, 0.5325, 0.0875, 0.6225, 0.1775, 0.7125, 0.265, 0.8, 0.355, 0.89, 0.445],
  "SoftwareVersions": "syngo_MR_E11",
  "SpacingBetweenSlices": 2,
  "StationName": "AWP166018",
  "TaskName": "sfprescaled",
  "TotalReadoutTime": 0.0597409,
  "TxRefAmp": 209.628,
  "WipMemBlock": "ce706ca7-c0e3-4c80-920e-365af659f99b||Sequence: R016 ve11c/master r/8780670; Nov 27 2017 15:05:12 by eja",
  "dcmmeta_affine": [
    [-1.999267816543579, 0.04711548238992691, 0.026615776121616364, 107.22503662109375],
    [0.03773821145296097, 1.9189730882644653, -0.5622437596321106, -71.80593872070312],
    [0.038782671093940735, 0.5615357160568237, 1.9191596508026123, -70.48042297363281],
    [0.0, 0.0, 0.0, 1.0]
],
  "dcmmeta_reorient_transform": [
    [0.0, -1.0, 0.0, 103.0],
    [1.0, 0.0, 0.0, 0.0],
    [0.0, 0.0, 1.0, 0.0],
    [0.0, 0.0, 0.0, 1.0]
],
  "dcmmeta_shape": [104, 104, 66, 264],
  "dcmmeta_slice_dim": 2,
  "dcmmeta_version": 0.6,
  "global": {
    "const": {
      "AccessionNumber": "juLLg1bg",
  "NumberOfVolumes": 264,
      "AcquisitionMatrix": [104, 0, 0, 104],
      "AngioFlag": "N",
      "BitsAllocated": 16,
      "BitsStored": 16,
      "BodyPartExamined": "BRAIN",
      "Columns": 936,
      "EchoNumbers": 1,
      "EchoTime": 37.0,
      "EchoTrainLength": 104,
      "FlipAngle": 68.0,
      "HighBit": 15,
      "ImageOrientationPatient": [0.99963389946681, -0.0188691054203, 0.01939133562749, 0.02355774109317, 0.95948655306514, -0.2807678530775],
      "ImagePositionPatient": [-963.37337831453, -908.44201127205, 204.82301902709],
      "ImageType": [
        "ORIGINAL",
        "PRIMARY",
        "M",
        "MB",
        "ND",
        "MOSAIC"
],
      "ImagedNucleus": "1H",
      "ImagingFrequency": 123.190861,
      "InPlanePhaseEncodingDirection": "COL",
      "MRAcquisitionType": "2D",
      "MagneticFieldStrength": 3.0,
      "Manufacturer": "SIEMENS",
      "ManufacturerModelName": "Prisma",
      "Modality": "MR",
      "NumberOfAverages": 1.0,
      "NumberOfPhaseEncodingSteps": 104,
      "PercentPhaseFieldOfView": 100.0,
      "PercentSampling": 100.0,
      "PerformedProcedureStepStartTime": "133436.477000",
      "PhotometricInterpretation": "MONOCHROME2",
      "PixelBandwidth": 2290.0,
      "PixelRepresentation": 0,
      "PixelSpacing": [2.0, 2.0],
      "ProtocolName": "task-sfprescaled_cmrr_mbepi_s6_2mm_66sl_PA_TR1.0",
      "RepetitionTime": 1000.0,
      "Rows": 936,
      "SAR": 0.05641051860443,
      "SamplesPerPixel": 1,
      "ScanOptions": "FS",
      "ScanningSequence": "EP",
      "SequenceName": "epfid2d1_104",
      "SequenceVariant": [
        "SK",
        "SS"
],
      "SeriesDescription": "task-sfprescaled_cmrr_mbepi_s6_2mm_66sl_PA_TR1.0",
      "SeriesNumber": 12,
      "SeriesTime": "135449.210000",
      "SliceLocation": -46.01843014342,
      "SliceThickness": 2.0,
      "SmallestImagePixelValue": 0,
      "SoftwareVersions": "syngo MR E11",
      "SpacingBetweenSlices": 2.0000000409259,
      "SpecificCharacterSet": "ISO_IR 100",
      "StudyID": "2",
      "StudyTime": "133436.380000",
      "TransmitCoilName": "Body",
      "VariableFlipAngleFlag": "N",
      "WindowCenterWidthExplanation": "Algo1",
      "dBdt": 0.0},
    "slices": {}
  },
  "time": {
    "samples": {
      "AcquisitionNumber": [1, 2, 3, 4, 5, 6, 7, 8, 9, 10, 11, 12, 13, 14, 15, 16, 17, 18, 19, 20, 21, 22, 23, 24, 25, 26, 27, 28, 29, 30, 31, 32, 33, 34, 35, 36, 37, 38, 39, 40, 41, 42, 43, 44, 45, 46, 47, 48, 49, 50, 51, 52, 53, 54, 55, 56, 57, 58, 59, 60, 61, 62, 63, 64, 65, 66, 67, 68, 69, 70, 71, 72, 73, 74, 75, 76, 77, 78, 79, 80, 81, 82, 83, 84, 85, 86, 87, 88, 89, 90, 91, 92, 93, 94, 95, 96, 97, 98, 99, 100, 101, 102, 103, 104, 105, 106, 107, 108, 109, 110, 111, 112, 113, 114, 115, 116, 117, 118, 119, 120, 121, 122, 123, 124, 125, 126, 127, 128, 129, 130, 131, 132, 133, 134, 135, 136, 137, 138, 139, 140, 141, 142, 143, 144, 145, 146, 147, 148, 149, 150, 151, 152, 153, 154, 155, 156, 157, 158, 159, 160, 161, 162, 163, 164, 165, 166, 167, 168, 169, 170, 171, 172, 173, 174, 175, 176, 177, 178, 179, 180, 181, 182, 183, 184, 185, 186, 187, 188, 189, 190, 191, 192, 193, 194, 195, 196, 197, 198, 199, 200, 201, 202, 203, 204, 205, 206, 207, 208, 209, 210, 211, 212, 213, 214, 215, 216, 217, 218, 219, 220, 221, 222, 223, 224, 225, 226, 227, 228, 229, 230, 231, 232, 233, 234, 235, 236, 237, 238, 239, 240, 241, 242, 243, 244, 245, 246, 247, 248, 249, 250, 251, 252, 253, 254, 255, 256, 257, 258, 259, 260, 261, 262, 263, 264],
      "AcquisitionTime": ["135353.470000", "135354.470000", "135355.470000", "135356.470000", "135357.470000", "135358.470000", "135359.470000", "135400.470000", "135401.470000", "135402.470000", "135403.470000", "135404.470000", "135405.470000", "135406.470000", "135407.470000", "135408.470000", "135409.470000", "135410.470000", "135411.470000", "135412.470000", "135413.470000", "135414.470000", "135415.470000", "135416.470000", "135417.470000", "135418.470000", "135419.470000", "135420.470000", "135421.470000", "135422.470000", "135423.470000", "135424.470000", "135425.470000", "135426.470000", "135427.470000", "135428.470000", "135429.470000", "135430.470000", "135431.470000", "135432.470000", "135433.470000", "135434.470000", "135435.470000", "135436.470000", "135437.470000", "135438.470000", "135439.470000", "135440.470000", "135441.470000", "135442.470000", "135443.470000", "135444.470000", "135445.470000", "135446.470000", "135447.470000", "135448.470000", "135449.470000", "135450.470000", "135451.470000", "135452.470000", "135453.470000", "135454.470000", "135455.470000", "135456.470000", "135457.470000", "135458.470000", "135459.470000", "135500.470000", "135501.470000", "135502.470000", "135503.470000", "135504.470000", "135505.470000", "135506.470000", "135507.470000", "135508.470000", "135509.470000", "135510.470000", "135511.470000", "135512.470000", "135513.470000", "135514.470000", "135515.470000", "135516.470000", "135517.470000", "135518.470000", "135519.470000", "135520.470000", "135521.470000", "135522.470000", "135523.470000", "135524.470000", "135525.470000", "135526.470000", "135527.470000", "135528.470000", "135529.470000", "135530.470000", "135531.470000", "135532.470000", "135533.470000", "135534.470000", "135535.470000", "135536.470000", "135537.470000", "135538.470000", "135539.470000", "135540.470000", "135541.470000", "135542.470000", "135543.470000", "135544.470000", "135545.470000", "135546.470000", "135547.470000", "135548.470000", "135549.470000", "135550.470000", "135551.470000", "135552.470000", "135553.470000", "135554.470000", "135555.470000", "135556.470000", "135557.470000", "135558.470000", "135559.470000", "135600.470000", "135601.470000", "135602.470000", "135603.470000", "135604.470000", "135605.470000", "135606.470000", "135607.470000", "135608.470000", "135609.470000", "135610.470000", "135611.470000", "135612.470000", "135613.470000", "135614.470000", "135615.470000", "135616.470000", "135617.470000", "135618.470000", "135619.470000", "135620.470000", "135621.470000", "135622.470000", "135623.470000", "135624.470000", "135625.470000", "135626.470000", "135627.470000", "135628.470000", "135629.470000", "135630.470000", "135631.470000", "135632.470000", "135633.470000", "135634.470000", "135635.470000", "135636.470000", "135637.470000", "135638.470000", "135639.470000", "135640.470000", "135641.470000", "135642.470000", "135643.470000", "135644.470000", "135645.470000", "135646.470000", "135647.470000", "135648.470000", "135649.470000", "135650.470000", "135651.470000", "135652.470000", "135653.470000", "135654.470000", "135655.470000", "135656.470000", "135657.470000", "135658.470000", "135659.470000", "135700.470000", "135701.470000", "135702.470000", "135703.470000", "135704.470000", "135705.470000", "135706.470000", "135707.470000", "135708.470000", "135709.470000", "135710.470000", "135711.470000", "135712.470000", "135713.470000", "135714.470000", "135715.470000", "135716.470000", "135717.470000", "135718.470000", "135719.470000", "135720.470000", "135721.470000", "135722.470000", "135723.470000", "135724.470000", "135725.470000", "135726.470000", "135727.470000", "135728.470000", "135729.470000", "135730.470000", "135731.470000", "135732.470000", "135733.470000", "135734.470000", "135735.470000", "135736.470000", "135737.470000", "135738.470000", "135739.470000", "135740.470000", "135741.470000", "135742.470000", "135743.470000", "135744.470000", "135745.470000", "135746.470000", "135747.470000", "135748.470000", "135749.470000", "135750.470000", "135751.470000", "135752.470000", "135753.470000", "135754.470000", "135755.470000", "135756.470000", "135757.470000", "135758.470000", "135759.470000", "135800.470000", "135801.470000", "135802.470000", "135803.470000", "135804.470000", "135805.470000", "135806.470000", "135807.470000", "135808.470000", "135809.470000", "135810.470000", "135811.470000", "135812.470000", "135813.470000", "135814.470000", "135815.470000", "135816.470000"],
      "ContentTime": ["135449.213000", "135449.217000", "135449.220000", "135449.223000", "135449.226000", "135449.229000", "135454.178000", "135454.181000", "135454.184000", "135454.187000", "135454.196000", "135454.199000", "135454.202000", "135459.178000", "135459.181000", "135459.184000", "135459.187000", "135459.190000", "135459.200000", "135459.203000", "135504.178000", "135504.181000", "135504.184000", "135504.187000", "135504.190000", "135504.193000", "135504.196000", "135509.179000", "135509.182000", "135509.185000", "135509.188000", "135509.191000", "135509.194000", "135509.202000", "135514.178000", "135514.181000", "135514.184000", "135514.187000", "135514.190000", "135514.193000", "135514.196000", "135519.178000", "135519.181000", "135519.184000", "135519.187000", "135519.190000", "135519.193000", "135519.196000", "135524.178000", "135524.181000", "135524.184000", "135524.187000", "135524.190000", "135524.193000", "135524.210000", "135529.178000", "135529.181000", "135529.184000", "135529.187000", "135529.190000", "135529.204000", "135529.207000", "135534.178000", "135534.181000", "135534.184000", "135534.193000", "135534.196000", "135534.199000", "135534.202000", "135539.178000", "135539.181000", "135539.184000", "135539.187000", "135539.190000", "135539.193000", "135539.196000", "135539.199000", "135544.179000", "135544.182000", "135544.185000", "135544.188000", "135544.191000", "135544.194000", "135544.197000", "135549.178000", "135549.181000", "135549.184000", "135549.187000", "135549.190000", "135549.193000", "135549.203000", "135554.178000", "135554.181000", "135554.184000", "135554.187000", "135554.190000", "135554.193000", "135554.196000", "135559.178000", "135559.181000", "135559.184000", "135559.187000", "135559.190000", "135559.193000", "135559.196000", "135604.178000", "135604.181000", "135604.184000", "135604.187000", "135604.190000", "135604.193000", "135604.196000", "135609.178000", "135609.181000", "135609.184000", "135609.187000", "135609.190000", "135609.193000", "135609.196000", "135614.178000", "135614.181000", "135614.184000", "135614.187000", "135614.190000", "135614.193000", "135614.196000", "135619.179000", "135619.182000", "135619.185000", "135619.188000", "135619.191000", "135619.194000", "135619.197000", "135624.178000", "135624.181000", "135624.184000", "135624.187000", "135624.190000", "135624.193000", "135624.196000", "135629.178000", "135629.181000", "135629.185000", "135629.188000", "135629.191000", "135629.194000", "135629.197000", "135634.178000", "135634.181000", "135634.184000", "135634.187000", "135634.190000", "135634.193000", "135634.196000", "135639.178000", "135639.181000", "135639.184000", "135639.187000", "135639.190000", "135639.193000", "135639.196000", "135639.199000", "135644.178000", "135644.181000", "135644.184000", "135644.187000", "135644.190000", "135644.193000", "135644.196000", "135649.178000", "135649.181000", "135649.184000", "135649.187000", "135649.190000", "135654.179000", "135654.182000", "135654.185000", "135654.188000", "135654.191000", "135659.178000", "135659.181000", "135659.184000", "135659.187000", "135659.190000", "135704.178000", "135704.181000", "135704.184000", "135704.187000", "135704.190000", "135709.179000", "135709.182000", "135709.185000", "135709.188000", "135709.191000", "135714.178000", "135714.181000", "135714.184000", "135714.187000", "135714.190000", "135719.178000", "135719.181000", "135719.184000", "135719.187000", "135719.190000", "135724.178000", "135724.181000", "135724.184000", "135724.187000", "135724.190000", "135729.179000", "135729.182000", "135729.185000", "135729.188000", "135729.191000", "135734.178000", "135734.181000", "135734.184000", "135734.187000", "135734.190000", "135739.178000", "135739.181000", "135739.184000", "135739.187000", "135739.190000", "135744.179000", "135744.182000", "135744.185000", "135744.188000", "135744.191000", "135749.178000", "135749.181000", "135749.184000", "135749.187000", "135749.190000", "135754.178000", "135754.181000", "135754.184000", "135754.187000", "135754.190000", "135759.178000", "135759.181000", "135759.184000", "135759.187000", "135759.190000", "135804.179000", "135804.182000", "135804.185000", "135804.196000", "135804.199000", "135809.178000", "135809.181000", "135809.184000", "135809.187000", "135809.190000", "135814.178000", "135814.181000", "135814.184000", "135814.187000", "135814.190000", "135818.542000", "135818.545000", "135818.548000", "135818.551000", "135818.555000"],
      "InstanceCreationTime": ["135449.213000", "135449.217000", "135449.220000", "135449.223000", "135449.226000", "135449.229000", "135454.178000", "135454.181000", "135454.184000", "135454.187000", "135454.196000", "135454.199000", "135454.202000", "135459.178000", "135459.181000", "135459.184000", "135459.187000", "135459.190000", "135459.200000", "135459.203000", "135504.178000", "135504.181000", "135504.184000", "135504.187000", "135504.190000", "135504.193000", "135504.196000", "135509.179000", "135509.182000", "135509.185000", "135509.188000", "135509.191000", "135509.194000", "135509.202000", "135514.178000", "135514.181000", "135514.184000", "135514.187000", "135514.190000", "135514.193000", "135514.196000", "135519.178000", "135519.181000", "135519.184000", "135519.187000", "135519.190000", "135519.193000", "135519.196000", "135524.178000", "135524.181000", "135524.184000", "135524.187000", "135524.190000", "135524.193000", "135524.210000", "135529.178000", "135529.181000", "135529.184000", "135529.187000", "135529.190000", "135529.204000", "135529.207000", "135534.178000", "135534.181000", "135534.184000", "135534.193000", "135534.196000", "135534.199000", "135534.202000", "135539.178000", "135539.181000", "135539.184000", "135539.187000", "135539.190000", "135539.193000", "135539.196000", "135539.199000", "135544.179000", "135544.182000", "135544.185000", "135544.188000", "135544.191000", "135544.194000", "135544.197000", "135549.178000", "135549.181000", "135549.184000", "135549.187000", "135549.190000", "135549.193000", "135549.203000", "135554.178000", "135554.181000", "135554.184000", "135554.187000", "135554.190000", "135554.193000", "135554.196000", "135559.178000", "135559.181000", "135559.184000", "135559.187000", "135559.190000", "135559.193000", "135559.196000", "135604.178000", "135604.181000", "135604.184000", "135604.187000", "135604.190000", "135604.193000", "135604.196000", "135609.178000", "135609.181000", "135609.184000", "135609.187000", "135609.190000", "135609.193000", "135609.196000", "135614.178000", "135614.181000", "135614.184000", "135614.187000", "135614.190000", "135614.193000", "135614.196000", "135619.179000", "135619.182000", "135619.185000", "135619.188000", "135619.191000", "135619.194000", "135619.197000", "135624.178000", "135624.181000", "135624.184000", "135624.187000", "135624.190000", "135624.193000", "135624.196000", "135629.178000", "135629.181000", "135629.185000", "135629.188000", "135629.191000", "135629.194000", "135629.197000", "135634.178000", "135634.181000", "135634.184000", "135634.187000", "135634.190000", "135634.193000", "135634.196000", "135639.178000", "135639.181000", "135639.184000", "135639.187000", "135639.190000", "135639.193000", "135639.196000", "135639.199000", "135644.178000", "135644.181000", "135644.184000", "135644.187000", "135644.190000", "135644.193000", "135644.196000", "135649.178000", "135649.181000", "135649.184000", "135649.187000", "135649.190000", "135654.179000", "135654.182000", "135654.185000", "135654.188000", "135654.191000", "135659.178000", "135659.181000", "135659.184000", "135659.187000", "135659.190000", "135704.178000", "135704.181000", "135704.184000", "135704.187000", "135704.190000", "135709.179000", "135709.182000", "135709.185000", "135709.188000", "135709.191000", "135714.178000", "135714.181000", "135714.184000", "135714.187000", "135714.190000", "135719.178000", "135719.181000", "135719.184000", "135719.187000", "135719.190000", "135724.178000", "135724.181000", "135724.184000", "135724.187000", "135724.190000", "135729.179000", "135729.182000", "135729.185000", "135729.188000", "135729.191000", "135734.178000", "135734.181000", "135734.184000", "135734.187000", "135734.190000", "135739.178000", "135739.181000", "135739.184000", "135739.187000", "135739.190000", "135744.179000", "135744.182000", "135744.185000", "135744.188000", "135744.191000", "135749.178000", "135749.181000", "135749.184000", "135749.187000", "135749.190000", "135754.178000", "135754.181000", "135754.184000", "135754.187000", "135754.190000", "135759.178000", "135759.181000", "135759.184000", "135759.187000", "135759.190000", "135804.179000", "135804.182000", "135804.185000", "135804.196000", "135804.199000", "135809.178000", "135809.181000", "135809.184000", "135809.187000", "135809.190000", "135814.178000", "135814.181000", "135814.184000", "135814.187000", "135814.190000", "135818.542000", "135818.545000", "135818.548000", "135818.551000", "135818.555000"],
      "InstanceNumber": [1, 2, 3, 4, 5, 6, 7, 8, 9, 10, 11, 12, 13, 14, 15, 16, 17, 18, 19, 20, 21, 22, 23, 24, 25, 26, 27, 28, 29, 30, 31, 32, 33, 34, 35, 36, 37, 38, 39, 40, 41, 42, 43, 44, 45, 46, 47, 48, 49, 50, 51, 52, 53, 54, 55, 56, 57, 58, 59, 60, 61, 62, 63, 64, 65, 66, 67, 68, 69, 70, 71, 72, 73, 74, 75, 76, 77, 78, 79, 80, 81, 82, 83, 84, 85, 86, 87, 88, 89, 90, 91, 92, 93, 94, 95, 96, 97, 98, 99, 100, 101, 102, 103, 104, 105, 106, 107, 108, 109, 110, 111, 112, 113, 114, 115, 116, 117, 118, 119, 120, 121, 122, 123, 124, 125, 126, 127, 128, 129, 130, 131, 132, 133, 134, 135, 136, 137, 138, 139, 140, 141, 142, 143, 144, 145, 146, 147, 148, 149, 150, 151, 152, 153, 154, 155, 156, 157, 158, 159, 160, 161, 162, 163, 164, 165, 166, 167, 168, 169, 170, 171, 172, 173, 174, 175, 176, 177, 178, 179, 180, 181, 182, 183, 184, 185, 186, 187, 188, 189, 190, 191, 192, 193, 194, 195, 196, 197, 198, 199, 200, 201, 202, 203, 204, 205, 206, 207, 208, 209, 210, 211, 212, 213, 214, 215, 216, 217, 218, 219, 220, 221, 222, 223, 224, 225, 226, 227, 228, 229, 230, 231, 232, 233, 234, 235, 236, 237, 238, 239, 240, 241, 242, 243, 244, 245, 246, 247, 248, 249, 250, 251, 252, 253, 254, 255, 256, 257, 258, 259, 260, 261, 262, 263, 264],
      "LargestImagePixelValue": [31075, 29622, 29272, 29585, 29070, 28625, 28511, 28709, 28859, 29066, 29056, 28958, 29516, 29166, 28949, 28953, 28825, 29199, 29106, 29343, 29359, 29494, 30375, 30323, 29899, 29294, 30222, 29767, 30622, 30788, 30772, 29722, 29273, 29071, 29255, 29291, 29354, 29288, 29651, 29485, 29618, 29252, 29254, 29431, 29000, 28916, 29328, 29757, 29482, 29360, 29698, 29310, 29407, 29351, 29194, 29305, 29680, 30321, 29470, 29571, 29707, 29251, 29593, 29591, 29319, 29304, 29844, 29888, 29946, 30207, 29378, 29450, 29124, 29036, 28993, 28980, 29030, 28994, 29450, 29255, 29720, 30181, 29577, 29492, 29432, 29302, 28989, 29349, 29219, 29012, 29571, 29182, 29956, 30622, 30610, 30179, 29930, 29150, 29009, 28980, 29314, 29337, 29300, 29183, 29309, 28976, 29020, 29410, 29142, 29274, 31625, 30191, 30292, 29109, 29435, 29548, 29134, 29031, 29583, 28928, 28946, 29897, 29791, 29827, 29599, 29255, 28872, 29538, 29174, 29008, 29225, 29447, 29265, 29332, 29268, 29320, 29341, 29531, 29257, 29136, 29706, 29236, 29415, 29322, 29444, 29180, 29410, 29504, 29992, 29554, 29624, 28967, 29590, 29171, 28935, 29380, 29473, 28742, 29476, 29154, 29115, 29530, 29476, 29691, 29872, 29618, 29364, 29333, 29149, 29149, 29240, 29547, 29348, 29366, 29746, 29244, 29374, 29282, 29199, 29584, 29544, 29555, 29444, 29625, 29509, 29075, 29601, 29258, 29133, 29581, 29414, 29246, 29520, 29487, 29417, 29497, 29463, 29178, 29385, 29560, 29511, 29290, 29406, 29721, 29483, 29944, 29546, 29389, 29639, 29599, 29143, 29391, 29769, 29450, 29870, 29960, 29487, 29839, 29631, 29657, 29035, 29630, 29346, 29318, 30067, 29360, 29343, 29451, 29492, 29059, 29147, 29205, 29239, 29889, 29336, 29564, 29861, 29861, 29919, 29921, 29599, 29140, 29621, 29475, 30140, 30579, 30656, 30544, 29582, 29666, 30051, 29583, 29421, 30060, 30528, 30900, 30794, 30519, 30694, 30295, 29948, 30346, 30325, 30309],
      "WindowCenter": [9727.0, 9662.0, 9636.0, 9638.0, 9623.0, 9604.0, 9617.0, 9626.0, 9642.0, 9657.0, 9667.0, 9664.0, 9673.0, 9659.0, 9650.0, 9638.0, 9637.0, 9644.0, 9650.0, 9658.0, 9658.0, 9664.0, 9682.0, 9683.0, 9672.0, 9675.0, 9694.0, 9704.0, 9732.0, 9731.0, 9702.0, 9679.0, 9663.0, 9668.0, 9669.0, 9675.0, 9683.0, 9685.0, 9689.0, 9690.0, 9698.0, 9685.0, 9677.0, 9682.0, 9665.0, 9663.0, 9675.0, 9683.0, 9675.0, 9675.0, 9681.0, 9674.0, 9674.0, 9681.0, 9668.0, 9681.0, 9697.0, 9708.0, 9691.0, 9685.0, 9690.0, 9677.0, 9683.0, 9692.0, 9681.0, 9681.0, 9697.0, 9704.0, 9705.0, 9693.0, 9676.0, 9672.0, 9660.0, 9651.0, 9650.0, 9657.0, 9653.0, 9664.0, 9683.0, 9685.0, 9697.0, 9705.0, 9691.0, 9689.0, 9683.0, 9673.0, 9665.0, 9667.0, 9660.0, 9666.0, 9683.0, 9692.0, 9725.0, 9726.0, 9723.0, 9702.0, 9687.0, 9660.0, 9659.0, 9654.0, 9663.0, 9661.0, 9663.0, 9650.0, 9655.0, 9659.0, 9656.0, 9648.0, 9643.0, 9633.0, 9662.0, 9664.0, 9697.0, 9660.0, 9650.0, 9645.0, 9641.0, 9634.0, 9639.0, 9651.0, 9656.0, 9681.0, 9682.0, 9676.0, 9661.0, 9655.0, 9655.0, 9651.0, 9651.0, 9652.0, 9646.0, 9662.0, 9654.0, 9665.0, 9660.0, 9669.0, 9668.0, 9666.0, 9660.0, 9653.0, 9648.0, 9643.0, 9656.0, 9658.0, 9667.0, 9675.0, 9682.0, 9677.0, 9682.0, 9667.0, 9665.0, 9657.0, 9671.0, 9667.0, 9664.0, 9674.0, 9672.0, 9655.0, 9659.0, 9662.0, 9668.0, 9674.0, 9676.0, 9674.0, 9664.0, 9655.0, 9649.0, 9640.0, 9641.0, 9643.0, 9648.0, 9655.0, 9657.0, 9658.0, 9662.0, 9651.0, 9650.0, 9653.0, 9651.0, 9665.0, 9663.0, 9658.0, 9650.0, 9661.0, 9656.0, 9658.0, 9677.0, 9677.0, 9679.0, 9682.0, 9676.0, 9670.0, 9673.0, 9672.0, 9667.0, 9660.0, 9664.0, 9653.0, 9657.0, 9664.0, 9674.0, 9677.0, 9689.0, 9696.0, 9683.0, 9676.0, 9663.0, 9658.0, 9662.0, 9664.0, 9674.0, 9682.0, 9695.0, 9695.0, 9698.0, 9694.0, 9673.0, 9656.0, 9654.0, 9656.0, 9644.0, 9654.0, 9657.0, 9657.0, 9661.0, 9651.0, 9650.0, 9641.0, 9641.0, 9637.0, 9624.0, 9635.0, 9651.0, 9668.0, 9673.0, 9682.0, 9674.0, 9667.0, 9660.0, 9661.0, 9648.0, 9636.0, 9644.0, 9649.0, 9660.0, 9681.0, 9696.0, 9692.0, 9657.0, 9646.0, 9636.0, 9639.0, 9647.0, 9653.0, 9667.0, 9686.0, 9667.0, 9656.0, 9663.0, 9659.0, 9656.0, 9667.0, 9675.0, 9669.0],
      "WindowWidth": [20818.0, 20660.0, 20599.0, 20595.0, 20562.0, 20526.0, 20553.0, 20571.0, 20607.0, 20642.0, 20670.0, 20665.0, 20675.0, 20644.0, 20623.0, 20599.0, 20595.0, 20612.0, 20627.0, 20643.0, 20644.0, 20658.0, 20691.0, 20695.0, 20677.0, 20685.0, 20725.0, 20748.0, 20811.0, 20805.0, 20735.0, 20687.0, 20661.0, 20669.0, 20672.0, 20688.0, 20707.0, 20712.0, 20716.0, 20722.0, 20736.0, 20708.0, 20691.0, 20700.0, 20664.0, 20661.0, 20685.0, 20700.0, 20685.0, 20684.0, 20695.0, 20681.0, 20682.0, 20696.0, 20670.0, 20701.0, 20733.0, 20752.0, 20722.0, 20710.0, 20718.0, 20693.0, 20704.0, 20722.0, 20700.0, 20699.0, 20733.0, 20749.0, 20754.0, 20725.0, 20686.0, 20674.0, 20647.0, 20629.0, 20626.0, 20642.0, 20634.0, 20658.0, 20700.0, 20708.0, 20736.0, 20750.0, 20719.0, 20714.0, 20696.0, 20673.0, 20658.0, 20664.0, 20649.0, 20665.0, 20700.0, 20725.0, 20799.0, 20797.0, 20785.0, 20739.0, 20703.0, 20650.0, 20646.0, 20635.0, 20654.0, 20645.0, 20651.0, 20624.0, 20634.0, 20642.0, 20636.0, 20617.0, 20606.0, 20584.0, 20637.0, 20649.0, 20723.0, 20648.0, 20619.0, 20607.0, 20599.0, 20581.0, 20594.0, 20629.0, 20643.0, 20696.0, 20699.0, 20684.0, 20653.0, 20639.0, 20640.0, 20626.0, 20629.0, 20629.0, 20615.0, 20648.0, 20636.0, 20656.0, 20653.0, 20672.0, 20666.0, 20663.0, 20648.0, 20631.0, 20619.0, 20609.0, 20636.0, 20645.0, 20666.0, 20683.0, 20698.0, 20690.0, 20696.0, 20661.0, 20655.0, 20641.0, 20666.0, 20660.0, 20657.0, 20676.0, 20671.0, 20639.0, 20647.0, 20655.0, 20668.0, 20682.0, 20687.0, 20676.0, 20654.0, 20635.0, 20619.0, 20599.0, 20601.0, 20607.0, 20617.0, 20632.0, 20636.0, 20637.0, 20648.0, 20626.0, 20622.0, 20627.0, 20628.0, 20658.0, 20654.0, 20643.0, 20625.0, 20646.0, 20638.0, 20644.0, 20684.0, 20691.0, 20697.0, 20700.0, 20688.0, 20675.0, 20676.0, 20675.0, 20663.0, 20649.0, 20655.0, 20632.0, 20639.0, 20657.0, 20680.0, 20688.0, 20715.0, 20726.0, 20695.0, 20671.0, 20645.0, 20639.0, 20644.0, 20655.0, 20679.0, 20698.0, 20727.0, 20731.0, 20732.0, 20722.0, 20675.0, 20635.0, 20632.0, 20637.0, 20610.0, 20630.0, 20639.0, 20638.0, 20647.0, 20627.0, 20622.0, 20605.0, 20605.0, 20596.0, 20566.0, 20592.0, 20625.0, 20659.0, 20674.0, 20694.0, 20678.0, 20662.0, 20647.0, 20643.0, 20616.0, 20592.0, 20606.0, 20622.0, 20641.0, 20685.0, 20722.0, 20718.0, 20639.0, 20608.0, 20584.0, 20592.0, 20608.0, 20620.0, 20651.0, 20688.0, 20646.0, 20620.0, 20636.0, 20631.0, 20629.0, 20650.0, 20670.0, 20655.0]
    },
    "slices": {}
  }
}