{
  "AcquisitionMatrixPE": 104,
  "AcquisitionNumber": 1,
  "AcquisitionTime": "11:31:1.547500",
  "BandwidthPerPixelPhaseEncode": 16.578,
  "BaseResolution": 104,
  "BodyPartExamined": "BRAIN",
  "ConsistencyInfo": "N4_VE11C_LATEST_20160120",
  "ConversionSoftware": "dcm2niix",
  "ConversionSoftwareVersion": "v1.0.20190410  GCC6.3.0",
  "DerivedVendorReportedEchoSpacing": 0.000580009,
  "DeviceSerialNumber": "166018",
  "DwellTime": 2.1e-06,
  "EchoTime": 0.037,
  "EchoTrainLength": 104,
  "EffectiveEchoSpacing": 0.000580009,
  "FlipAngle": 68,
  "ImageComments": "Unaliased_MB6_PE3_LB",
  "ImageOrientationPatientDICOM": [0.998853, -0.0388923, 0.0279193, 0.0430869, 0.984487, -0.170083],
  "ImageType": [
    "ORIGINAL",
    "PRIMARY",
    "M",
    "MB",
    "ND",
    "MOSAIC"
],
  "ImagingFrequency": 123.191,
  "InPlanePhaseEncodingDirectionDICOM": "COL",
  "InstitutionAddress": "Washington_Place_6_NYC_NYC_US_10003",
  "InstitutionName": "NYU_-_CBI",
  "InstitutionalDepartmentName": "Department",
  "MRAcquisitionType": "2D",
  "MagneticFieldStrength": 3,
  "Manufacturer": "Siemens",
  "ManufacturersModelName": "Prisma",
  "Modality": "MR",
  "MultibandAccelerationFactor": 6,
  "PartialFourier": 1,
  "PatientPosition": "HFS",
  "PercentPhaseFOV": 100,
  "PhaseEncodingDirection": "j",
  "PhaseEncodingSteps": 104,
  "PhaseResolution": 1,
  "PixelBandwidth": 2290,
  "ProcedureStepDescription": "Investigators_Winawer",
  "ProtocolName": "task-sfprescaled_cmrr_mbepi_s6_2mm_66sl_PA_TR1.0",
  "PulseSequenceDetails": "%CustomerSeq%_cmrr_mbep2d_bold",
  "ReceiveCoilActiveElements": "HC1-7",
  "ReceiveCoilName": "HeadNeck_64",
  "ReconMatrixPE": 104,
  "RepetitionTime": 1,
  "SAR": 0.0728078,
  "ScanOptions": "FS",
  "ScanningSequence": "EP",
  "SequenceName": "epfid2d1_104",
  "SequenceVariant": "SK_SS",
  "SeriesDescription": "task-sfprescaled_cmrr_mbepi_s6_2mm_66sl_PA_TR1.0",
  "SeriesNumber": 26,
  "ShimSetting": [252, -12611, -8531, 327, -46, -7, 35, 0],
  "SliceThickness": 2,
  "SliceTiming": [0, 0.535, 0.09, 0.625, 0.1775, 0.7125, 0.2675, 0.8025, 0.3575, 0.89, 0.445, 0, 0.535, 0.09, 0.625, 0.1775, 0.7125, 0.2675, 0.8025, 0.3575, 0.89, 0.445, 0, 0.535, 0.09, 0.625, 0.1775, 0.7125, 0.2675, 0.8025, 0.3575, 0.89, 0.445, 0, 0.535, 0.09, 0.625, 0.1775, 0.7125, 0.2675, 0.8025, 0.3575, 0.89, 0.445, 0, 0.535, 0.09, 0.625, 0.1775, 0.7125, 0.2675, 0.8025, 0.3575, 0.89, 0.445, 0, 0.535, 0.09, 0.625, 0.1775, 0.7125, 0.2675, 0.8025, 0.3575, 0.89, 0.445],
  "SoftwareVersions": "syngo_MR_E11",
  "SpacingBetweenSlices": 2,
  "StationName": "AWP166018",
  "TaskName": "sfprescaled",
  "TotalReadoutTime": 0.0597409,
  "TxRefAmp": 216.634,
  "WipMemBlock": "0147bbda-03b7-44ae-b501-601ec328b3ca||Sequence: R016 ve11c/master r/8780670; Nov 27 2017 15:05:12 by eja",
  "dcmmeta_affine": [
    [-1.9977065324783325, 0.0861738920211792, 0.04174263775348663, 103.73658752441406],
    [0.07778450101613998, 1.9689745903015137, -0.34218233823776245, -73.6180648803711],
    [0.0558386854827404, 0.34016647934913635, 1.970068335533142, -67.41401672363281],
    [0.0, 0.0, 0.0, 1.0]
],
  "dcmmeta_reorient_transform": [
    [0.0, -1.0, 0.0, 103.0],
    [1.0, 0.0, 0.0, 0.0],
    [0.0, 0.0, 1.0, 0.0],
    [0.0, 0.0, 0.0, 1.0]
],
  "dcmmeta_shape": [104, 104, 66, 264],
  "dcmmeta_slice_dim": 2,
  "dcmmeta_version": 0.6,
  "global": {
    "const": {
      "AccessionNumber": "k5odmn64",
      "AcquisitionMatrix": [104, 0, 0, 104],
      "AngioFlag": "N",
      "BitsAllocated": 16,
      "BitsStored": 16,
      "BodyPartExamined": "BRAIN",
      "Columns": 936,
      "EchoNumbers": 1,
      "EchoTime": 37.0,
      "EchoTrainLength": 104,
      "FlipAngle": 68.0,
      "HighBit": 15,
      "ImageOrientationPatient": [0.99885329406993, -0.0388922510526, 0.02791934336097, 0.04308694691435, 0.98448728111066, -0.1700832394357],
      "ImagePositionPatient": [-979.50677938651, -915.92138287249, 85.903491900522],
      "ImageType": [
        "ORIGINAL",
        "PRIMARY",
        "M",
        "MB",
        "ND",
        "MOSAIC"
],
      "ImagedNucleus": "1H",
      "ImagingFrequency": 123.190755,
      "InPlanePhaseEncodingDirection": "COL",
      "MRAcquisitionType": "2D",
      "MagneticFieldStrength": 3.0,
      "Manufacturer": "SIEMENS",
      "ManufacturerModelName": "Prisma",
      "Modality": "MR",
      "NumberOfAverages": 1.0,
      "NumberOfPhaseEncodingSteps": 104,
      "PercentPhaseFieldOfView": 100.0,
      "PercentSampling": 100.0,
      "PerformedProcedureStepStartTime": "103156.857000",
      "PhotometricInterpretation": "MONOCHROME2",
      "PixelBandwidth": 2290.0,
      "PixelRepresentation": 0,
      "PixelSpacing": [2.0, 2.0],
      "ProtocolName": "task-sfprescaled_cmrr_mbepi_s6_2mm_66sl_PA_TR1.0",
      "RepetitionTime": 1000.0,
      "Rows": 936,
      "SAR": 0.07280780157127,
      "SamplesPerPixel": 1,
      "ScanOptions": "FS",
      "ScanningSequence": "EP",
      "SequenceName": "epfid2d1_104",
      "SequenceVariant": [
        "SK",
        "SS"
],
      "SeriesDescription": "task-sfprescaled_cmrr_mbepi_s6_2mm_66sl_PA_TR1.0",
      "SeriesNumber": 26,
      "SeriesTime": "113221.896000",
      "SliceLocation": -51.644587110569,
      "SliceThickness": 2.0,
      "SmallestImagePixelValue": 0,
      "SoftwareVersions": "syngo MR E11",
      "SpacingBetweenSlices": 2.0000000771805,
      "SpecificCharacterSet": "ISO_IR 100",
      "StudyID": "1",
      "StudyTime": "103156.795000",
      "TransmitCoilName": "Body",
      "VariableFlipAngleFlag": "N",
      "WindowCenterWidthExplanation": "Algo1",
      "dBdt": 0.0},
    "slices": {}
  },
  "time": {
    "samples": {
      "AcquisitionNumber": [1, 2, 3, 4, 5, 6, 7, 8, 9, 10, 11, 12, 13, 14, 15, 16, 17, 18, 19, 20, 21, 22, 23, 24, 25, 26, 27, 28, 29, 30, 31, 32, 33, 34, 35, 36, 37, 38, 39, 40, 41, 42, 43, 44, 45, 46, 47, 48, 49, 50, 51, 52, 53, 54, 55, 56, 57, 58, 59, 60, 61, 62, 63, 64, 65, 66, 67, 68, 69, 70, 71, 72, 73, 74, 75, 76, 77, 78, 79, 80, 81, 82, 83, 84, 85, 86, 87, 88, 89, 90, 91, 92, 93, 94, 95, 96, 97, 98, 99, 100, 101, 102, 103, 104, 105, 106, 107, 108, 109, 110, 111, 112, 113, 114, 115, 116, 117, 118, 119, 120, 121, 122, 123, 124, 125, 126, 127, 128, 129, 130, 131, 132, 133, 134, 135, 136, 137, 138, 139, 140, 141, 142, 143, 144, 145, 146, 147, 148, 149, 150, 151, 152, 153, 154, 155, 156, 157, 158, 159, 160, 161, 162, 163, 164, 165, 166, 167, 168, 169, 170, 171, 172, 173, 174, 175, 176, 177, 178, 179, 180, 181, 182, 183, 184, 185, 186, 187, 188, 189, 190, 191, 192, 193, 194, 195, 196, 197, 198, 199, 200, 201, 202, 203, 204, 205, 206, 207, 208, 209, 210, 211, 212, 213, 214, 215, 216, 217, 218, 219, 220, 221, 222, 223, 224, 225, 226, 227, 228, 229, 230, 231, 232, 233, 234, 235, 236, 237, 238, 239, 240, 241, 242, 243, 244, 245, 246, 247, 248, 249, 250, 251, 252, 253, 254, 255, 256, 257, 258, 259, 260, 261, 262, 263, 264],
      "AcquisitionTime": ["113101.547500", "113102.547500", "113103.547500", "113104.547500", "113105.547500", "113106.547500", "113107.547500", "113108.547500", "113109.547500", "113110.547500", "113111.547500", "113112.547500", "113113.547500", "113114.547500", "113115.547500", "113116.547500", "113117.547500", "113118.547500", "113119.547500", "113120.547500", "113121.547500", "113122.547500", "113123.547500", "113124.547500", "113125.547500", "113126.547500", "113127.547500", "113128.547500", "113129.547500", "113130.547500", "113131.547500", "113132.547500", "113133.547500", "113134.547500", "113135.547500", "113136.547500", "113137.547500", "113138.547500", "113139.547500", "113140.547500", "113141.547500", "113142.547500", "113143.547500", "113144.547500", "113145.547500", "113146.547500", "113147.547500", "113148.547500", "113149.547500", "113150.547500", "113151.547500", "113152.547500", "113153.547500", "113154.547500", "113155.547500", "113156.547500", "113157.547500", "113158.547500", "113159.547500", "113200.547500", "113201.547500", "113202.547500", "113203.547500", "113204.547500", "113205.547500", "113206.547500", "113207.547500", "113208.547500", "113209.547500", "113210.547500", "113211.547500", "113212.547500", "113213.547500", "113214.547500", "113215.547500", "113216.547500", "113217.547500", "113218.547500", "113219.547500", "113220.547500", "113221.547500", "113222.547500", "113223.547500", "113224.547500", "113225.547500", "113226.547500", "113227.547500", "113228.547500", "113229.547500", "113230.547500", "113231.547500", "113232.547500", "113233.547500", "113234.547500", "113235.547500", "113236.547500", "113237.547500", "113238.547500", "113239.547500", "113240.547500", "113241.547500", "113242.547500", "113243.547500", "113244.547500", "113245.547500", "113246.547500", "113247.547500", "113248.547500", "113249.547500", "113250.547500", "113251.547500", "113252.547500", "113253.547500", "113254.547500", "113255.547500", "113256.547500", "113257.547500", "113258.547500", "113259.547500", "113300.547500", "113301.547500", "113302.547500", "113303.547500", "113304.547500", "113305.547500", "113306.547500", "113307.547500", "113308.547500", "113309.547500", "113310.547500", "113311.547500", "113312.547500", "113313.547500", "113314.547500", "113315.547500", "113316.547500", "113317.547500", "113318.547500", "113319.547500", "113320.547500", "113321.547500", "113322.547500", "113323.547500", "113324.547500", "113325.547500", "113326.547500", "113327.547500", "113328.547500", "113329.547500", "113330.547500", "113331.547500", "113332.547500", "113333.547500", "113334.547500", "113335.547500", "113336.547500", "113337.547500", "113338.547500", "113339.547500", "113340.547500", "113341.547500", "113342.547500", "113343.547500", "113344.547500", "113345.547500", "113346.547500", "113347.547500", "113348.547500", "113349.547500", "113350.547500", "113351.547500", "113352.547500", "113353.547500", "113354.547500", "113355.547500", "113356.547500", "113357.547500", "113358.547500", "113359.547500", "113400.547500", "113401.547500", "113402.547500", "113403.547500", "113404.547500", "113405.547500", "113406.547500", "113407.547500", "113408.547500", "113409.547500", "113410.547500", "113411.547500", "113412.547500", "113413.547500", "113414.547500", "113415.547500", "113416.547500", "113417.547500", "113418.547500", "113419.547500", "113420.547500", "113421.547500", "113422.547500", "113423.547500", "113424.547500", "113425.547500", "113426.547500", "113427.547500", "113428.547500", "113429.547500", "113430.547500", "113431.547500", "113432.547500", "113433.547500", "113434.547500", "113435.547500", "113436.547500", "113437.547500", "113438.547500", "113439.547500", "113440.547500", "113441.547500", "113442.547500", "113443.547500", "113444.547500", "113445.547500", "113446.547500", "113447.547500", "113448.547500", "113449.547500", "113450.547500", "113451.547500", "113452.547500", "113453.547500", "113454.547500", "113455.547500", "113456.547500", "113457.547500", "113458.547500", "113459.547500", "113500.547500", "113501.547500", "113502.547500", "113503.547500", "113504.547500", "113505.547500", "113506.547500", "113507.547500", "113508.547500", "113509.547500", "113510.547500", "113511.547500", "113512.547500", "113513.547500", "113514.547500", "113515.547500", "113516.547500", "113517.547500", "113518.547500", "113519.547500", "113520.547500", "113521.547500", "113522.547500", "113523.547500", "113524.547500"],
      "ContentTime": ["113221.899000", "113221.903000", "113221.906000", "113221.909000", "113221.912000", "113221.915000", "113221.918000", "113221.921000", "113221.924000", "113221.927000", "113221.930000", "113221.933000", "113221.936000", "113221.951000", "113221.954000", "113221.957000", "113221.961000", "113221.965000", "113221.969000", "113221.977000", "113221.980000", "113221.983000", "113221.986000", "113221.989000", "113221.992000", "113221.995000", "113221.998000", "113222.002000", "113222.005000", "113222.008000", "113222.011000", "113222.014000", "113222.017000", "113222.020000", "113222.023000", "113241.865000", "113241.887000", "113241.890000", "113241.893000", "113241.896000", "113241.899000", "113241.902000", "113241.905000", "113241.908000", "113241.911000", "113241.914000", "113241.917000", "113241.919000", "113241.923000", "113241.926000", "113241.929000", "113241.931000", "113241.935000", "113241.937000", "113241.940000", "113241.943000", "113241.948000", "113241.951000", "113241.954000", "113241.957000", "113241.960000", "113241.963000", "113241.966000", "113241.969000", "113301.865000", "113301.868000", "113301.871000", "113301.874000", "113301.877000", "113301.880000", "113301.883000", "113301.886000", "113301.889000", "113301.892000", "113301.895000", "113301.898000", "113301.901000", "113301.904000", "113301.907000", "113301.910000", "113301.913000", "113301.916000", "113301.919000", "113301.922000", "113301.925000", "113301.928000", "113301.931000", "113301.934000", "113301.937000", "113301.940000", "113301.943000", "113301.947000", "113321.865000", "113321.868000", "113321.871000", "113321.874000", "113321.877000", "113321.880000", "113321.883000", "113321.886000", "113321.889000", "113321.892000", "113321.895000", "113321.898000", "113321.901000", "113321.904000", "113321.915000", "113321.918000", "113321.921000", "113321.924000", "113321.927000", "113321.930000", "113321.933000", "113321.936000", "113321.939000", "113321.942000", "113321.945000", "113321.949000", "113321.952000", "113321.955000", "113341.865000", "113341.868000", "113341.871000", "113341.874000", "113341.877000", "113341.880000", "113341.883000", "113341.886000", "113341.889000", "113341.892000", "113341.895000", "113341.898000", "113341.901000", "113341.904000", "113341.907000", "113341.910000", "113341.913000", "113341.916000", "113341.919000", "113341.922000", "113341.925000", "113341.928000", "113341.931000", "113341.934000", "113341.937000", "113341.940000", "113341.943000", "113341.947000", "113401.864000", "113401.867000", "113401.870000", "113401.873000", "113401.876000", "113401.879000", "113401.882000", "113401.885000", "113401.888000", "113401.891000", "113401.894000", "113401.897000", "113401.900000", "113401.903000", "113401.906000", "113401.909000", "113401.912000", "113401.919000", "113401.922000", "113401.925000", "113401.928000", "113401.931000", "113401.934000", "113401.937000", "113401.940000", "113401.943000", "113401.947000", "113401.950000", "113401.953000", "113421.865000", "113421.868000", "113421.871000", "113421.874000", "113421.877000", "113421.880000", "113421.883000", "113421.886000", "113421.889000", "113421.892000", "113421.895000", "113421.898000", "113421.901000", "113421.904000", "113421.907000", "113421.910000", "113421.913000", "113421.916000", "113421.919000", "113421.922000", "113421.925000", "113421.928000", "113441.865000", "113441.868000", "113441.871000", "113441.874000", "113441.877000", "113441.880000", "113441.883000", "113441.890000", "113441.893000", "113441.896000", "113441.899000", "113441.902000", "113441.905000", "113441.908000", "113441.911000", "113441.914000", "113441.917000", "113441.920000", "113441.923000", "113441.926000", "113501.865000", "113501.868000", "113501.871000", "113501.874000", "113501.886000", "113501.889000", "113501.893000", "113501.896000", "113501.899000", "113501.902000", "113501.905000", "113501.908000", "113501.911000", "113501.914000", "113501.917000", "113501.920000", "113501.923000", "113501.926000", "113501.929000", "113501.932000", "113521.865000", "113521.868000", "113521.871000", "113521.874000", "113521.877000", "113521.880000", "113521.883000", "113521.886000", "113521.889000", "113521.892000", "113521.895000", "113521.898000", "113521.901000", "113521.904000", "113521.907000", "113521.910000", "113521.913000", "113521.916000", "113521.919000", "113521.922000", "113526.138000", "113526.141000", "113526.144000", "113526.147000", "113526.151000"],
      "InstanceCreationTime": ["113221.899000", "113221.903000", "113221.906000", "113221.909000", "113221.912000", "113221.915000", "113221.918000", "113221.921000", "113221.924000", "113221.927000", "113221.930000", "113221.933000", "113221.936000", "113221.951000", "113221.954000", "113221.957000", "113221.961000", "113221.965000", "113221.969000", "113221.977000", "113221.980000", "113221.983000", "113221.986000", "113221.989000", "113221.992000", "113221.995000", "113221.998000", "113222.002000", "113222.005000", "113222.008000", "113222.011000", "113222.014000", "113222.017000", "113222.020000", "113222.023000", "113241.865000", "113241.887000", "113241.890000", "113241.893000", "113241.896000", "113241.899000", "113241.902000", "113241.905000", "113241.908000", "113241.911000", "113241.914000", "113241.917000", "113241.919000", "113241.923000", "113241.926000", "113241.929000", "113241.931000", "113241.935000", "113241.937000", "113241.940000", "113241.943000", "113241.948000", "113241.951000", "113241.954000", "113241.957000", "113241.960000", "113241.963000", "113241.966000", "113241.969000", "113301.865000", "113301.868000", "113301.871000", "113301.874000", "113301.877000", "113301.880000", "113301.883000", "113301.886000", "113301.889000", "113301.892000", "113301.895000", "113301.898000", "113301.901000", "113301.904000", "113301.907000", "113301.910000", "113301.913000", "113301.916000", "113301.919000", "113301.922000", "113301.925000", "113301.928000", "113301.931000", "113301.934000", "113301.937000", "113301.940000", "113301.943000", "113301.947000", "113321.865000", "113321.868000", "113321.871000", "113321.874000", "113321.877000", "113321.880000", "113321.883000", "113321.886000", "113321.889000", "113321.892000", "113321.895000", "113321.898000", "113321.901000", "113321.904000", "113321.915000", "113321.918000", "113321.921000", "113321.924000", "113321.927000", "113321.930000", "113321.933000", "113321.936000", "113321.939000", "113321.942000", "113321.945000", "113321.949000", "113321.952000", "113321.955000", "113341.865000", "113341.868000", "113341.871000", "113341.874000", "113341.877000", "113341.880000", "113341.883000", "113341.886000", "113341.889000", "113341.892000", "113341.895000", "113341.898000", "113341.901000", "113341.904000", "113341.907000", "113341.910000", "113341.913000", "113341.916000", "113341.919000", "113341.922000", "113341.925000", "113341.928000", "113341.931000", "113341.934000", "113341.937000", "113341.940000", "113341.943000", "113341.947000", "113401.864000", "113401.867000", "113401.870000", "113401.873000", "113401.876000", "113401.879000", "113401.882000", "113401.885000", "113401.888000", "113401.891000", "113401.894000", "113401.897000", "113401.900000", "113401.903000", "113401.906000", "113401.909000", "113401.912000", "113401.919000", "113401.922000", "113401.925000", "113401.928000", "113401.931000", "113401.934000", "113401.937000", "113401.940000", "113401.943000", "113401.947000", "113401.950000", "113401.953000", "113421.865000", "113421.868000", "113421.871000", "113421.874000", "113421.877000", "113421.880000", "113421.883000", "113421.886000", "113421.889000", "113421.892000", "113421.895000", "113421.898000", "113421.901000", "113421.904000", "113421.907000", "113421.910000", "113421.913000", "113421.916000", "113421.919000", "113421.922000", "113421.925000", "113421.928000", "113441.865000", "113441.868000", "113441.871000", "113441.874000", "113441.877000", "113441.880000", "113441.883000", "113441.890000", "113441.893000", "113441.896000", "113441.899000", "113441.902000", "113441.905000", "113441.908000", "113441.911000", "113441.914000", "113441.917000", "113441.920000", "113441.923000", "113441.926000", "113501.865000", "113501.868000", "113501.871000", "113501.874000", "113501.886000", "113501.889000", "113501.893000", "113501.896000", "113501.899000", "113501.902000", "113501.905000", "113501.908000", "113501.911000", "113501.914000", "113501.917000", "113501.920000", "113501.923000", "113501.926000", "113501.929000", "113501.932000", "113521.865000", "113521.868000", "113521.871000", "113521.874000", "113521.877000", "113521.880000", "113521.883000", "113521.886000", "113521.889000", "113521.892000", "113521.895000", "113521.898000", "113521.901000", "113521.904000", "113521.907000", "113521.910000", "113521.913000", "113521.916000", "113521.919000", "113521.922000", "113526.138000", "113526.141000", "113526.144000", "113526.147000", "113526.151000"],
      "InstanceNumber": [1, 2, 3, 4, 5, 6, 7, 8, 9, 10, 11, 12, 13, 14, 15, 16, 17, 18, 19, 20, 21, 22, 23, 24, 25, 26, 27, 28, 29, 30, 31, 32, 33, 34, 35, 36, 37, 38, 39, 40, 41, 42, 43, 44, 45, 46, 47, 48, 49, 50, 51, 52, 53, 54, 55, 56, 57, 58, 59, 60, 61, 62, 63, 64, 65, 66, 67, 68, 69, 70, 71, 72, 73, 74, 75, 76, 77, 78, 79, 80, 81, 82, 83, 84, 85, 86, 87, 88, 89, 90, 91, 92, 93, 94, 95, 96, 97, 98, 99, 100, 101, 102, 103, 104, 105, 106, 107, 108, 109, 110, 111, 112, 113, 114, 115, 116, 117, 118, 119, 120, 121, 122, 123, 124, 125, 126, 127, 128, 129, 130, 131, 132, 133, 134, 135, 136, 137, 138, 139, 140, 141, 142, 143, 144, 145, 146, 147, 148, 149, 150, 151, 152, 153, 154, 155, 156, 157, 158, 159, 160, 161, 162, 163, 164, 165, 166, 167, 168, 169, 170, 171, 172, 173, 174, 175, 176, 177, 178, 179, 180, 181, 182, 183, 184, 185, 186, 187, 188, 189, 190, 191, 192, 193, 194, 195, 196, 197, 198, 199, 200, 201, 202, 203, 204, 205, 206, 207, 208, 209, 210, 211, 212, 213, 214, 215, 216, 217, 218, 219, 220, 221, 222, 223, 224, 225, 226, 227, 228, 229, 230, 231, 232, 233, 234, 235, 236, 237, 238, 239, 240, 241, 242, 243, 244, 245, 246, 247, 248, 249, 250, 251, 252, 253, 254, 255, 256, 257, 258, 259, 260, 261, 262, 263, 264],
      "LargestImagePixelValue": [39024, 33368, 32361, 31652, 30850, 31707, 31105, 31170, 30937, 31067, 31058, 30920, 30813, 31074, 30530, 30980, 30380, 30844, 31173, 30899, 30330, 30619, 30079, 30572, 30055, 30489, 30077, 30285, 29941, 30460, 29996, 30012, 29819, 30142, 30207, 30034, 29898, 30255, 30397, 30088, 30230, 29923, 30437, 29959, 29812, 29883, 30112, 29771, 30080, 29953, 30024, 30339, 29896, 30078, 29825, 29824, 29870, 30241, 29922, 30127, 30352, 30331, 30128, 30291, 30126, 30263, 30606, 30537, 30027, 30098, 30356, 30569, 30734, 30142, 30248, 30087, 30442, 30248, 29903, 30197, 30037, 29898, 29731, 30019, 30399, 30387, 30082, 29741, 29804, 29683, 30029, 29919, 29967, 30102, 29813, 30190, 30163, 30157, 30021, 29644, 29843, 29818, 29668, 30026, 30223, 30052, 29703, 30207, 29970, 30071, 30048, 30173, 30343, 30209, 30481, 30079, 30246, 30281, 30593, 30416, 30062, 30577, 30150, 30167, 30489, 30749, 30266, 30731, 30236, 30832, 30375, 30335, 29699, 30601, 30548, 30585, 30425, 30519, 30452, 30766, 30168, 30298, 30909, 30861, 30668, 30097, 29963, 31027, 30902, 30950, 31135, 29972, 31012, 30905, 30558, 30868, 31066, 30774, 30471, 30369, 30598, 30884, 30452, 30798, 30951, 31233, 30930, 30512, 30611, 30927, 30537, 30441, 30909, 30790, 30283, 30069, 30792, 30482, 30168, 30111, 29646, 30500, 30640, 30112, 30065, 30454, 30994, 31218, 31101, 31025, 30795, 31001, 31765, 31093, 30915, 31277, 31760, 31448, 31244, 31006, 31417, 31238, 31415, 31230, 31242, 31595, 31074, 31292, 31271, 30753, 31305, 31122, 30916, 30995, 30690, 30765, 30903, 30584, 31337, 31474, 31009, 30887, 31389, 31344, 30792, 31042, 31106, 30901, 31070, 31321, 31009, 30866, 30416, 31238, 30739, 30382, 31777, 30994, 31178, 30579, 31071, 31235, 30838, 30909, 30539, 30649, 30896, 30113, 30433, 30736, 30597, 30514, 30748, 30645, 30599, 30495, 31230, 31156, 30685, 30708, 30871, 30512, 30751, 30878],
      "WindowCenter": [9235.0, 9097.0, 9039.0, 9013.0, 8997.0, 9031.0, 9021.0, 9024.0, 9032.0, 9033.0, 9033.0, 9035.0, 9035.0, 9033.0, 9017.0, 9033.0, 9028.0, 9046.0, 9053.0, 9062.0, 9057.0, 9057.0, 9050.0, 9056.0, 9050.0, 9065.0, 9059.0, 9074.0, 9069.0, 9078.0, 9070.0, 9071.0, 9070.0, 9061.0, 9059.0, 9059.0, 9052.0, 9065.0, 9065.0, 9061.0, 9068.0, 9060.0, 9065.0, 9066.0, 9068.0, 9070.0, 9077.0, 9080.0, 9078.0, 9069.0, 9068.0, 9073.0, 9052.0, 9050.0, 9035.0, 9031.0, 9014.0, 9016.0, 9017.0, 9019.0, 9043.0, 9048.0, 9056.0, 9067.0, 9059.0, 9055.0, 9044.0, 9035.0, 9021.0, 9009.0, 9006.0, 9012.0, 9013.0, 9007.0, 9014.0, 9009.0, 9015.0, 9025.0, 9020.0, 9036.0, 9048.0, 9040.0, 9031.0, 9039.0, 9047.0, 9062.0, 9056.0, 9040.0, 9025.0, 9013.0, 9009.0, 8994.0, 8999.0, 8998.0, 8987.0, 8998.0, 9000.0, 9008.0, 9012.0, 9019.0, 9022.0, 9022.0, 9021.0, 9028.0, 9035.0, 9053.0, 9060.0, 9076.0, 9066.0, 9052.0, 9052.0, 9041.0, 9037.0, 9037.0, 9053.0, 9055.0, 9070.0, 9073.0, 9084.0, 9077.0, 9060.0, 9054.0, 9031.0, 9030.0, 9033.0, 9030.0, 9030.0, 9029.0, 9028.0, 9048.0, 9058.0, 9061.0, 9042.0, 9060.0, 9046.0, 9050.0, 9036.0, 9027.0, 9024.0, 9033.0, 9020.0, 9042.0, 9057.0, 9060.0, 9062.0, 9040.0, 9031.0, 9052.0, 9059.0, 9077.0, 9080.0, 9059.0, 9069.0, 9080.0, 9067.0, 9063.0, 9052.0, 9044.0, 9036.0, 9020.0, 9014.0, 9003.0, 8971.0, 8967.0, 8971.0, 8987.0, 8989.0, 8986.0, 8993.0, 9016.0, 9014.0, 9025.0, 9039.0, 9043.0, 9038.0, 9030.0, 9035.0, 9029.0, 9012.0, 8999.0, 8970.0, 8985.0, 8992.0, 8979.0, 8971.0, 8976.0, 8991.0, 8999.0, 8993.0, 8982.0, 8971.0, 8979.0, 9001.0, 8998.0, 9009.0, 9016.0, 9025.0, 9018.0, 9001.0, 8993.0, 8992.0, 8984.0, 8984.0, 8990.0, 8997.0, 9006.0, 9020.0, 9033.0, 9045.0, 9052.0, 9076.0, 9081.0, 9082.0, 9065.0, 9039.0, 9021.0, 9025.0, 9008.0, 9028.0, 9038.0, 9039.0, 9041.0, 9050.0, 9057.0, 9044.0, 9052.0, 9060.0, 9060.0, 9071.0, 9068.0, 9061.0, 9053.0, 9056.0, 9086.0, 9084.0, 9087.0, 9096.0, 9082.0, 9057.0, 9037.0, 9033.0, 9038.0, 9041.0, 9057.0, 9051.0, 9061.0, 9060.0, 9032.0, 9020.0, 9001.0, 8990.0, 8981.0, 8985.0, 8974.0, 8983.0, 8993.0, 9022.0, 9020.0, 9031.0, 9043.0, 9052.0, 9038.0, 9028.0, 9018.0],
      "WindowWidth": [19620.0, 19339.0, 19203.0, 19142.0, 19110.0, 19169.0, 19157.0, 19167.0, 19184.0, 19185.0, 19185.0, 19189.0, 19187.0, 19184.0, 19153.0, 19183.0, 19178.0, 19216.0, 19228.0, 19249.0, 19244.0, 19242.0, 19230.0, 19239.0, 19231.0, 19259.0, 19254.0, 19282.0, 19277.0, 19293.0, 19280.0, 19282.0, 19278.0, 19260.0, 19251.0, 19251.0, 19241.0, 19262.0, 19261.0, 19259.0, 19272.0, 19257.0, 19262.0, 19267.0, 19273.0, 19279.0, 19291.0, 19302.0, 19293.0, 19274.0, 19270.0, 19278.0, 19242.0, 19232.0, 19203.0, 19191.0, 19157.0, 19152.0, 19156.0, 19165.0, 19210.0, 19227.0, 19246.0, 19268.0, 19251.0, 19241.0, 19213.0, 19194.0, 19171.0, 19144.0, 19135.0, 19142.0, 19147.0, 19138.0, 19151.0, 19142.0, 19152.0, 19173.0, 19168.0, 19200.0, 19224.0, 19209.0, 19194.0, 19206.0, 19224.0, 19252.0, 19241.0, 19209.0, 19181.0, 19151.0, 19139.0, 19111.0, 19116.0, 19116.0, 19103.0, 19118.0, 19124.0, 19142.0, 19154.0, 19167.0, 19178.0, 19178.0, 19172.0, 19183.0, 19197.0, 19235.0, 19258.0, 19294.0, 19264.0, 19240.0, 19243.0, 19219.0, 19200.0, 19202.0, 19235.0, 19240.0, 19270.0, 19281.0, 19303.0, 19289.0, 19256.0, 19233.0, 19191.0, 19189.0, 19188.0, 19178.0, 19179.0, 19172.0, 19181.0, 19215.0, 19238.0, 19248.0, 19218.0, 19245.0, 19221.0, 19224.0, 19201.0, 19180.0, 19172.0, 19189.0, 19169.0, 19211.0, 19237.0, 19247.0, 19257.0, 19213.0, 19197.0, 19233.0, 19244.0, 19282.0, 19290.0, 19253.0, 19262.0, 19286.0, 19262.0, 19248.0, 19223.0, 19207.0, 19194.0, 19161.0, 19141.0, 19122.0, 19060.0, 19046.0, 19051.0, 19083.0, 19090.0, 19092.0, 19102.0, 19149.0, 19151.0, 19179.0, 19198.0, 19210.0, 19202.0, 19191.0, 19195.0, 19188.0, 19153.0, 19127.0, 19061.0, 19084.0, 19093.0, 19071.0, 19058.0, 19068.0, 19098.0, 19116.0, 19108.0, 19078.0, 19051.0, 19067.0, 19109.0, 19109.0, 19132.0, 19146.0, 19159.0, 19147.0, 19109.0, 19096.0, 19097.0, 19084.0, 19083.0, 19094.0, 19105.0, 19129.0, 19162.0, 19177.0, 19207.0, 19230.0, 19276.0, 19291.0, 19295.0, 19258.0, 19206.0, 19169.0, 19173.0, 19137.0, 19169.0, 19197.0, 19194.0, 19205.0, 19224.0, 19234.0, 19216.0, 19233.0, 19245.0, 19245.0, 19275.0, 19263.0, 19252.0, 19232.0, 19244.0, 19302.0, 19303.0, 19314.0, 19322.0, 19294.0, 19243.0, 19198.0, 19185.0, 19194.0, 19208.0, 19237.0, 19230.0, 19248.0, 19245.0, 19193.0, 19163.0, 19121.0, 19097.0, 19080.0, 19088.0, 19058.0, 19076.0, 19101.0, 19152.0, 19157.0, 19183.0, 19209.0, 19225.0, 19204.0, 19178.0, 19157.0]
    },
    "slices": {}
  },
  "NumberOfVolumes": 264
}