{
  "AcquisitionMatrixPE": 104,
  "AcquisitionNumber": 1,
  "AcquisitionTime": "11:10:21.485000",
  "BandwidthPerPixelPhaseEncode": 16.578,
  "BaseResolution": 104,
  "BodyPartExamined": "BRAIN",
  "ConsistencyInfo": "N4_VE11C_LATEST_20160120",
  "ConversionSoftware": "dcm2niix",
  "ConversionSoftwareVersion": "v1.0.20190410  GCC6.3.0",
  "DerivedVendorReportedEchoSpacing": 0.000580009,
  "DeviceSerialNumber": "166018",
  "DwellTime": 2.1e-06,
  "EchoTime": 0.037,
  "EchoTrainLength": 104,
  "EffectiveEchoSpacing": 0.000580009,
  "FlipAngle": 68,
  "ImageComments": "Unaliased_MB6_PE3_LB",
  "ImageOrientationPatientDICOM": [0.998853, -0.0388923, 0.0279193, 0.0430869, 0.984487, -0.170083],
  "ImageType": [
    "ORIGINAL",
    "PRIMARY",
    "M",
    "MB",
    "ND",
    "MOSAIC"
],
  "ImagingFrequency": 123.191,
  "InPlanePhaseEncodingDirectionDICOM": "COL",
  "InstitutionAddress": "Washington_Place_6_NYC_NYC_US_10003",
  "InstitutionName": "NYU_-_CBI",
  "InstitutionalDepartmentName": "Department",
  "MRAcquisitionType": "2D",
  "MagneticFieldStrength": 3,
  "Manufacturer": "Siemens",
  "ManufacturersModelName": "Prisma",
  "Modality": "MR",
  "MultibandAccelerationFactor": 6,
  "PartialFourier": 1,
  "PatientPosition": "HFS",
  "PercentPhaseFOV": 100,
  "PhaseEncodingDirection": "j",
  "PhaseEncodingSteps": 104,
  "PhaseResolution": 1,
  "PixelBandwidth": 2290,
  "ProcedureStepDescription": "Investigators_Winawer",
  "ProtocolName": "task-sfprescaled_cmrr_mbepi_s6_2mm_66sl_PA_TR1.0",
  "PulseSequenceDetails": "%CustomerSeq%_cmrr_mbep2d_bold",
  "ReceiveCoilActiveElements": "HC1-7",
  "ReceiveCoilName": "HeadNeck_64",
  "ReconMatrixPE": 104,
  "RepetitionTime": 1,
  "SAR": 0.0728078,
  "ScanOptions": "FS",
  "ScanningSequence": "EP",
  "SequenceName": "epfid2d1_104",
  "SequenceVariant": "SK_SS",
  "SeriesDescription": "task-sfprescaled_cmrr_mbepi_s6_2mm_66sl_PA_TR1.0",
  "SeriesNumber": 18,
  "ShimSetting": [252, -12611, -8531, 327, -46, -7, 35, 0],
  "SliceThickness": 2,
  "SliceTiming": [0, 0.535, 0.09, 0.625, 0.18, 0.715, 0.2675, 0.8025, 0.3575, 0.8925, 0.4475, 0, 0.535, 0.09, 0.625, 0.18, 0.715, 0.2675, 0.8025, 0.3575, 0.8925, 0.4475, 0, 0.535, 0.09, 0.625, 0.18, 0.715, 0.2675, 0.8025, 0.3575, 0.8925, 0.4475, 0, 0.535, 0.09, 0.625, 0.18, 0.715, 0.2675, 0.8025, 0.3575, 0.8925, 0.4475, 0, 0.535, 0.09, 0.625, 0.18, 0.715, 0.2675, 0.8025, 0.3575, 0.8925, 0.4475, 0, 0.535, 0.09, 0.625, 0.18, 0.715, 0.2675, 0.8025, 0.3575, 0.8925, 0.4475],
  "SoftwareVersions": "syngo_MR_E11",
  "SpacingBetweenSlices": 2,
  "StationName": "AWP166018",
  "TaskName": "sfprescaled",
  "TotalReadoutTime": 0.0597409,
  "TxRefAmp": 216.634,
  "WipMemBlock": "0147bbda-03b7-44ae-b501-601ec328b3ca||Sequence: R016 ve11c/master r/8780670; Nov 27 2017 15:05:12 by eja",
  "dcmmeta_affine": [
    [-1.9977065324783325, 0.0861738920211792, 0.04174263775348663, 103.73658752441406],
    [0.07778450101613998, 1.9689745903015137, -0.34218233823776245, -73.6180648803711],
    [0.0558386854827404, 0.34016647934913635, 1.970068335533142, -67.41401672363281],
    [0.0, 0.0, 0.0, 1.0]
],
  "dcmmeta_reorient_transform": [
    [0.0, -1.0, 0.0, 103.0],
    [1.0, 0.0, 0.0, 0.0],
    [0.0, 0.0, 1.0, 0.0],
    [0.0, 0.0, 0.0, 1.0]
],
  "dcmmeta_shape": [104, 104, 66, 264],
  "dcmmeta_slice_dim": 2,
  "dcmmeta_version": 0.6,
  "global": {
    "const": {
      "AccessionNumber": "k5odmn64",
      "AcquisitionMatrix": [104, 0, 0, 104],
      "AngioFlag": "N",
      "BitsAllocated": 16,
      "BitsStored": 16,
      "BodyPartExamined": "BRAIN",
      "Columns": 936,
      "EchoNumbers": 1,
      "EchoTime": 37.0,
      "EchoTrainLength": 104,
      "FlipAngle": 68.0,
      "HighBit": 15,
      "ImageOrientationPatient": [0.99885329406993, -0.0388922510526, 0.02791934336097, 0.04308694691435, 0.98448728111066, -0.1700832394357],
      "ImagePositionPatient": [-979.50677938651, -915.92138287249, 85.903491900522],
      "ImageType": [
        "ORIGINAL",
        "PRIMARY",
        "M",
        "MB",
        "ND",
        "MOSAIC"
],
      "ImagedNucleus": "1H",
      "ImagingFrequency": 123.190755,
      "InPlanePhaseEncodingDirection": "COL",
      "MRAcquisitionType": "2D",
      "MagneticFieldStrength": 3.0,
      "Manufacturer": "SIEMENS",
      "ManufacturerModelName": "Prisma",
      "Modality": "MR",
      "NumberOfAverages": 1.0,
      "NumberOfPhaseEncodingSteps": 104,
      "PercentPhaseFieldOfView": 100.0,
      "PercentSampling": 100.0,
      "PerformedProcedureStepStartTime": "103156.857000",
      "PhotometricInterpretation": "MONOCHROME2",
      "PixelBandwidth": 2290.0,
      "PixelRepresentation": 0,
      "PixelSpacing": [2.0, 2.0],
      "ProtocolName": "task-sfprescaled_cmrr_mbepi_s6_2mm_66sl_PA_TR1.0",
      "RepetitionTime": 1000.0,
      "Rows": 936,
      "SAR": 0.07280780157127,
      "SamplesPerPixel": 1,
      "ScanOptions": "FS",
      "ScanningSequence": "EP",
      "SequenceName": "epfid2d1_104",
      "SequenceVariant": [
        "SK",
        "SS"
],
      "SeriesDescription": "task-sfprescaled_cmrr_mbepi_s6_2mm_66sl_PA_TR1.0",
      "SeriesNumber": 18,
      "SeriesTime": "111141.859000",
      "SliceLocation": -51.644587110569,
      "SliceThickness": 2.0,
      "SmallestImagePixelValue": 0,
      "SoftwareVersions": "syngo MR E11",
      "SpacingBetweenSlices": 2.0000000771805,
      "SpecificCharacterSet": "ISO_IR 100",
      "StudyID": "1",
      "StudyTime": "103156.795000",
      "TransmitCoilName": "Body",
      "VariableFlipAngleFlag": "N",
      "WindowCenterWidthExplanation": "Algo1",
      "dBdt": 0.0},
    "slices": {}
  },
  "time": {
    "samples": {
      "AcquisitionNumber": [1, 2, 3, 4, 5, 6, 7, 8, 9, 10, 11, 12, 13, 14, 15, 16, 17, 18, 19, 20, 21, 22, 23, 24, 25, 26, 27, 28, 29, 30, 31, 32, 33, 34, 35, 36, 37, 38, 39, 40, 41, 42, 43, 44, 45, 46, 47, 48, 49, 50, 51, 52, 53, 54, 55, 56, 57, 58, 59, 60, 61, 62, 63, 64, 65, 66, 67, 68, 69, 70, 71, 72, 73, 74, 75, 76, 77, 78, 79, 80, 81, 82, 83, 84, 85, 86, 87, 88, 89, 90, 91, 92, 93, 94, 95, 96, 97, 98, 99, 100, 101, 102, 103, 104, 105, 106, 107, 108, 109, 110, 111, 112, 113, 114, 115, 116, 117, 118, 119, 120, 121, 122, 123, 124, 125, 126, 127, 128, 129, 130, 131, 132, 133, 134, 135, 136, 137, 138, 139, 140, 141, 142, 143, 144, 145, 146, 147, 148, 149, 150, 151, 152, 153, 154, 155, 156, 157, 158, 159, 160, 161, 162, 163, 164, 165, 166, 167, 168, 169, 170, 171, 172, 173, 174, 175, 176, 177, 178, 179, 180, 181, 182, 183, 184, 185, 186, 187, 188, 189, 190, 191, 192, 193, 194, 195, 196, 197, 198, 199, 200, 201, 202, 203, 204, 205, 206, 207, 208, 209, 210, 211, 212, 213, 214, 215, 216, 217, 218, 219, 220, 221, 222, 223, 224, 225, 226, 227, 228, 229, 230, 231, 232, 233, 234, 235, 236, 237, 238, 239, 240, 241, 242, 243, 244, 245, 246, 247, 248, 249, 250, 251, 252, 253, 254, 255, 256, 257, 258, 259, 260, 261, 262, 263, 264],
      "AcquisitionTime": ["111021.485000", "111022.485000", "111023.485000", "111024.485000", "111025.485000", "111026.485000", "111027.485000", "111028.485000", "111029.485000", "111030.485000", "111031.485000", "111032.485000", "111033.485000", "111034.485000", "111035.485000", "111036.485000", "111037.485000", "111038.485000", "111039.485000", "111040.485000", "111041.485000", "111042.485000", "111043.485000", "111044.485000", "111045.485000", "111046.485000", "111047.485000", "111048.485000", "111049.485000", "111050.485000", "111051.485000", "111052.485000", "111053.485000", "111054.485000", "111055.485000", "111056.485000", "111057.485000", "111058.485000", "111059.485000", "111100.485000", "111101.485000", "111102.485000", "111103.485000", "111104.485000", "111105.485000", "111106.485000", "111107.485000", "111108.485000", "111109.485000", "111110.485000", "111111.485000", "111112.485000", "111113.485000", "111114.485000", "111115.485000", "111116.485000", "111117.485000", "111118.485000", "111119.485000", "111120.485000", "111121.485000", "111122.485000", "111123.485000", "111124.485000", "111125.485000", "111126.485000", "111127.485000", "111128.485000", "111129.485000", "111130.485000", "111131.485000", "111132.485000", "111133.485000", "111134.485000", "111135.485000", "111136.485000", "111137.485000", "111138.485000", "111139.485000", "111140.485000", "111141.485000", "111142.485000", "111143.485000", "111144.485000", "111145.485000", "111146.485000", "111147.485000", "111148.485000", "111149.485000", "111150.485000", "111151.485000", "111152.485000", "111153.485000", "111154.485000", "111155.485000", "111156.485000", "111157.485000", "111158.485000", "111159.485000", "111200.485000", "111201.485000", "111202.485000", "111203.485000", "111204.485000", "111205.485000", "111206.485000", "111207.485000", "111208.485000", "111209.485000", "111210.485000", "111211.485000", "111212.485000", "111213.485000", "111214.485000", "111215.485000", "111216.485000", "111217.485000", "111218.485000", "111219.485000", "111220.485000", "111221.485000", "111222.485000", "111223.485000", "111224.485000", "111225.485000", "111226.485000", "111227.485000", "111228.485000", "111229.485000", "111230.485000", "111231.485000", "111232.485000", "111233.485000", "111234.485000", "111235.485000", "111236.485000", "111237.485000", "111238.485000", "111239.485000", "111240.485000", "111241.485000", "111242.485000", "111243.485000", "111244.485000", "111245.485000", "111246.485000", "111247.485000", "111248.485000", "111249.485000", "111250.485000", "111251.485000", "111252.485000", "111253.485000", "111254.485000", "111255.485000", "111256.485000", "111257.485000", "111258.485000", "111259.485000", "111300.485000", "111301.485000", "111302.485000", "111303.485000", "111304.485000", "111305.485000", "111306.485000", "111307.485000", "111308.485000", "111309.485000", "111310.485000", "111311.485000", "111312.485000", "111313.485000", "111314.485000", "111315.485000", "111316.485000", "111317.485000", "111318.485000", "111319.485000", "111320.485000", "111321.485000", "111322.485000", "111323.485000", "111324.485000", "111325.485000", "111326.485000", "111327.485000", "111328.485000", "111329.485000", "111330.485000", "111331.485000", "111332.485000", "111333.485000", "111334.485000", "111335.485000", "111336.485000", "111337.485000", "111338.485000", "111339.485000", "111340.485000", "111341.485000", "111342.485000", "111343.485000", "111344.485000", "111345.485000", "111346.485000", "111347.485000", "111348.485000", "111349.485000", "111350.485000", "111351.485000", "111352.485000", "111353.485000", "111354.485000", "111355.485000", "111356.485000", "111357.485000", "111358.485000", "111359.485000", "111400.485000", "111401.485000", "111402.485000", "111403.485000", "111404.485000", "111405.485000", "111406.485000", "111407.485000", "111408.485000", "111409.485000", "111410.485000", "111411.485000", "111412.485000", "111413.485000", "111414.485000", "111415.485000", "111416.485000", "111417.485000", "111418.485000", "111419.485000", "111420.485000", "111421.485000", "111422.485000", "111423.485000", "111424.485000", "111425.485000", "111426.485000", "111427.485000", "111428.485000", "111429.485000", "111430.485000", "111431.485000", "111432.485000", "111433.485000", "111434.485000", "111435.485000", "111436.485000", "111437.485000", "111438.485000", "111439.485000", "111440.485000", "111441.485000", "111442.485000", "111443.485000", "111444.485000"],
      "ContentTime": ["111141.862000", "111141.865000", "111141.868000", "111141.871000", "111141.874000", "111141.877000", "111141.880000", "111141.883000", "111141.886000", "111141.893000", "111141.901000", "111141.904000", "111141.907000", "111141.910000", "111141.913000", "111141.916000", "111141.919000", "111141.922000", "111141.925000", "111141.928000", "111141.931000", "111141.934000", "111141.937000", "111141.940000", "111141.943000", "111141.946000", "111141.949000", "111141.952000", "111141.955000", "111141.958000", "111141.961000", "111141.964000", "111141.967000", "111141.970000", "111141.973000", "111141.976000", "111141.993000", "111142.002000", "111142.005000", "111142.008000", "111142.011000", "111142.014000", "111142.017000", "111201.776000", "111201.779000", "111201.782000", "111201.785000", "111201.788000", "111201.791000", "111201.794000", "111201.797000", "111201.800000", "111201.803000", "111201.806000", "111201.814000", "111201.817000", "111201.821000", "111201.824000", "111201.827000", "111201.829000", "111201.833000", "111201.836000", "111201.839000", "111201.842000", "111201.845000", "111201.848000", "111201.851000", "111201.854000", "111201.857000", "111201.860000", "111201.863000", "111201.866000", "111221.776000", "111221.779000", "111221.782000", "111221.785000", "111221.788000", "111221.791000", "111221.794000", "111221.797000", "111221.800000", "111221.803000", "111221.806000", "111221.809000", "111221.812000", "111221.815000", "111221.818000", "111221.821000", "111221.824000", "111221.827000", "111221.830000", "111221.833000", "111221.836000", "111221.839000", "111221.842000", "111221.845000", "111221.848000", "111221.851000", "111221.854000", "111221.857000", "111241.776000", "111241.779000", "111241.782000", "111241.785000", "111241.788000", "111241.791000", "111241.794000", "111241.797000", "111241.800000", "111241.803000", "111241.806000", "111241.809000", "111241.812000", "111241.815000", "111241.818000", "111241.821000", "111241.824000", "111241.827000", "111241.830000", "111241.833000", "111241.836000", "111241.839000", "111241.842000", "111241.845000", "111241.848000", "111241.851000", "111241.854000", "111241.857000", "111301.776000", "111301.779000", "111301.782000", "111301.786000", "111301.789000", "111301.792000", "111301.795000", "111301.798000", "111301.801000", "111301.804000", "111301.807000", "111301.810000", "111301.813000", "111301.816000", "111301.819000", "111301.822000", "111301.825000", "111301.828000", "111301.831000", "111301.834000", "111301.837000", "111301.840000", "111301.843000", "111301.846000", "111301.849000", "111301.852000", "111301.855000", "111301.858000", "111321.776000", "111321.779000", "111321.782000", "111321.785000", "111321.788000", "111321.791000", "111321.794000", "111321.797000", "111321.800000", "111321.803000", "111321.806000", "111321.809000", "111321.812000", "111321.815000", "111321.818000", "111321.821000", "111321.825000", "111321.828000", "111321.831000", "111321.834000", "111321.838000", "111321.841000", "111321.844000", "111321.846000", "111341.776000", "111341.779000", "111341.782000", "111341.785000", "111341.788000", "111341.791000", "111341.794000", "111341.797000", "111341.800000", "111341.803000", "111341.806000", "111341.809000", "111341.812000", "111341.815000", "111341.818000", "111341.821000", "111341.824000", "111341.827000", "111341.830000", "111341.833000", "111401.776000", "111401.779000", "111401.782000", "111401.785000", "111401.788000", "111401.791000", "111401.794000", "111401.797000", "111401.800000", "111401.803000", "111401.806000", "111401.809000", "111401.812000", "111401.815000", "111401.818000", "111401.821000", "111401.825000", "111401.827000", "111401.830000", "111401.833000", "111421.776000", "111421.779000", "111421.782000", "111421.804000", "111421.807000", "111421.810000", "111421.813000", "111421.816000", "111421.819000", "111421.822000", "111421.825000", "111421.828000", "111421.831000", "111421.834000", "111421.837000", "111421.840000", "111421.844000", "111421.847000", "111421.849000", "111421.852000", "111441.776000", "111441.779000", "111441.782000", "111441.785000", "111441.788000", "111441.791000", "111441.794000", "111441.797000", "111441.800000", "111441.803000", "111441.806000", "111441.809000", "111441.812000", "111441.815000", "111441.818000", "111441.821000", "111441.824000", "111441.827000", "111441.830000", "111441.833000", "111445.742000", "111445.745000", "111445.748000", "111445.751000"],
      "InstanceCreationTime": ["111141.862000", "111141.865000", "111141.868000", "111141.871000", "111141.874000", "111141.877000", "111141.880000", "111141.883000", "111141.886000", "111141.893000", "111141.901000", "111141.904000", "111141.907000", "111141.910000", "111141.913000", "111141.916000", "111141.919000", "111141.922000", "111141.925000", "111141.928000", "111141.931000", "111141.934000", "111141.937000", "111141.940000", "111141.943000", "111141.946000", "111141.949000", "111141.952000", "111141.955000", "111141.958000", "111141.961000", "111141.964000", "111141.967000", "111141.970000", "111141.973000", "111141.976000", "111141.993000", "111142.002000", "111142.005000", "111142.008000", "111142.011000", "111142.014000", "111142.017000", "111201.776000", "111201.779000", "111201.782000", "111201.785000", "111201.788000", "111201.791000", "111201.794000", "111201.797000", "111201.800000", "111201.803000", "111201.806000", "111201.814000", "111201.817000", "111201.821000", "111201.824000", "111201.827000", "111201.829000", "111201.833000", "111201.836000", "111201.839000", "111201.842000", "111201.845000", "111201.848000", "111201.851000", "111201.854000", "111201.857000", "111201.860000", "111201.863000", "111201.866000", "111221.776000", "111221.779000", "111221.782000", "111221.785000", "111221.788000", "111221.791000", "111221.794000", "111221.797000", "111221.800000", "111221.803000", "111221.806000", "111221.809000", "111221.812000", "111221.815000", "111221.818000", "111221.821000", "111221.824000", "111221.827000", "111221.830000", "111221.833000", "111221.836000", "111221.839000", "111221.842000", "111221.845000", "111221.848000", "111221.851000", "111221.854000", "111221.857000", "111241.776000", "111241.779000", "111241.782000", "111241.785000", "111241.788000", "111241.791000", "111241.794000", "111241.797000", "111241.800000", "111241.803000", "111241.806000", "111241.809000", "111241.812000", "111241.815000", "111241.818000", "111241.821000", "111241.824000", "111241.827000", "111241.830000", "111241.833000", "111241.836000", "111241.839000", "111241.842000", "111241.845000", "111241.848000", "111241.851000", "111241.854000", "111241.857000", "111301.776000", "111301.779000", "111301.782000", "111301.786000", "111301.789000", "111301.792000", "111301.795000", "111301.798000", "111301.801000", "111301.804000", "111301.807000", "111301.810000", "111301.813000", "111301.816000", "111301.819000", "111301.822000", "111301.825000", "111301.828000", "111301.831000", "111301.834000", "111301.837000", "111301.840000", "111301.843000", "111301.846000", "111301.849000", "111301.852000", "111301.855000", "111301.858000", "111321.776000", "111321.779000", "111321.782000", "111321.785000", "111321.788000", "111321.791000", "111321.794000", "111321.797000", "111321.800000", "111321.803000", "111321.806000", "111321.809000", "111321.812000", "111321.815000", "111321.818000", "111321.821000", "111321.825000", "111321.828000", "111321.831000", "111321.834000", "111321.838000", "111321.841000", "111321.844000", "111321.846000", "111341.776000", "111341.779000", "111341.782000", "111341.785000", "111341.788000", "111341.791000", "111341.794000", "111341.797000", "111341.800000", "111341.803000", "111341.806000", "111341.809000", "111341.812000", "111341.815000", "111341.818000", "111341.821000", "111341.824000", "111341.827000", "111341.830000", "111341.833000", "111401.776000", "111401.779000", "111401.782000", "111401.785000", "111401.788000", "111401.791000", "111401.794000", "111401.797000", "111401.800000", "111401.803000", "111401.806000", "111401.809000", "111401.812000", "111401.815000", "111401.818000", "111401.821000", "111401.825000", "111401.827000", "111401.830000", "111401.833000", "111421.776000", "111421.779000", "111421.782000", "111421.804000", "111421.807000", "111421.810000", "111421.813000", "111421.816000", "111421.819000", "111421.822000", "111421.825000", "111421.828000", "111421.831000", "111421.834000", "111421.837000", "111421.840000", "111421.844000", "111421.847000", "111421.849000", "111421.852000", "111441.776000", "111441.779000", "111441.782000", "111441.785000", "111441.788000", "111441.791000", "111441.794000", "111441.797000", "111441.800000", "111441.803000", "111441.806000", "111441.809000", "111441.812000", "111441.815000", "111441.818000", "111441.821000", "111441.824000", "111441.827000", "111441.830000", "111441.833000", "111445.742000", "111445.745000", "111445.748000", "111445.751000"],
      "InstanceNumber": [1, 2, 3, 4, 5, 6, 7, 8, 9, 10, 11, 12, 13, 14, 15, 16, 17, 18, 19, 20, 21, 22, 23, 24, 25, 26, 27, 28, 29, 30, 31, 32, 33, 34, 35, 36, 37, 38, 39, 40, 41, 42, 43, 44, 45, 46, 47, 48, 49, 50, 51, 52, 53, 54, 55, 56, 57, 58, 59, 60, 61, 62, 63, 64, 65, 66, 67, 68, 69, 70, 71, 72, 73, 74, 75, 76, 77, 78, 79, 80, 81, 82, 83, 84, 85, 86, 87, 88, 89, 90, 91, 92, 93, 94, 95, 96, 97, 98, 99, 100, 101, 102, 103, 104, 105, 106, 107, 108, 109, 110, 111, 112, 113, 114, 115, 116, 117, 118, 119, 120, 121, 122, 123, 124, 125, 126, 127, 128, 129, 130, 131, 132, 133, 134, 135, 136, 137, 138, 139, 140, 141, 142, 143, 144, 145, 146, 147, 148, 149, 150, 151, 152, 153, 154, 155, 156, 157, 158, 159, 160, 161, 162, 163, 164, 165, 166, 167, 168, 169, 170, 171, 172, 173, 174, 175, 176, 177, 178, 179, 180, 181, 182, 183, 184, 185, 186, 187, 188, 189, 190, 191, 192, 193, 194, 195, 196, 197, 198, 199, 200, 201, 202, 203, 204, 205, 206, 207, 208, 209, 210, 211, 212, 213, 214, 215, 216, 217, 218, 219, 220, 221, 222, 223, 224, 225, 226, 227, 228, 229, 230, 231, 232, 233, 234, 235, 236, 237, 238, 239, 240, 241, 242, 243, 244, 245, 246, 247, 248, 249, 250, 251, 252, 253, 254, 255, 256, 257, 258, 259, 260, 261, 262, 263, 264],
      "LargestImagePixelValue": [33187, 32103, 31298, 30873, 31206, 30695, 30448, 31115, 31246, 31069, 31037, 31281, 31271, 31461, 31098, 31369, 31120, 31152, 30827, 31239, 31194, 31509, 30989, 31149, 30999, 31572, 31234, 31109, 30796, 31005, 31419, 31474, 31526, 31765, 30943, 31257, 31374, 31260, 31374, 31203, 30820, 31045, 31614, 31120, 30888, 30592, 31176, 31352, 31004, 31235, 31350, 31713, 31592, 31364, 31624, 31383, 31339, 30752, 31518, 30991, 31725, 31865, 31043, 31501, 31605, 31059, 31300, 31458, 31454, 31493, 31347, 31366, 31113, 31677, 30953, 31437, 31681, 31668, 31224, 31246, 31538, 31158, 31384, 31443, 31608, 31715, 31489, 31642, 31677, 31374, 31802, 31504, 31719, 31492, 31557, 31178, 31194, 31249, 31858, 31349, 31629, 31452, 31392, 31151, 31585, 31131, 31165, 31282, 31238, 31662, 31415, 31437, 31165, 31562, 31239, 31458, 31139, 31465, 30907, 30912, 31003, 31129, 31381, 30513, 30685, 30411, 30979, 30961, 30676, 31071, 30684, 31066, 31340, 30763, 31091, 30540, 31019, 30264, 30606, 30780, 30191, 30321, 30101, 29984, 30685, 30786, 30733, 30396, 29966, 30257, 30153, 30306, 30220, 30256, 30499, 30395, 30411, 30482, 30523, 30607, 30413, 30415, 30165, 30053, 30288, 30293, 30372, 30547, 30482, 30730, 30626, 30526, 30159, 30683, 30254, 30152, 30200, 30244, 30276, 30587, 30299, 30332, 30776, 30488, 30080, 30801, 30076, 30138, 30323, 30114, 30429, 29985, 30574, 30190, 30271, 30593, 30160, 30504, 30128, 30125, 30270, 30077, 30248, 32431, 30319, 30367, 30313, 30388, 30729, 30316, 30525, 30468, 30659, 30331, 30373, 30341, 30514, 30440, 30281, 30482, 30746, 30424, 30488, 31220, 31360, 30456, 30790, 31369, 30257, 30645, 30989, 30651, 31066, 30597, 31208, 30984, 31465, 30962, 31148, 30940, 31196, 30617, 30478, 30537, 31117, 31248, 31326, 30686, 30893, 30710, 30667, 31674, 30749, 30560, 30479, 30135, 30561, 30730, 30424, 30359, 30534, 30549, 30225, 30345],
      "WindowCenter": [9178.0, 9131.0, 9113.0, 9107.0, 9111.0, 9103.0, 9097.0, 9109.0, 9115.0, 9090.0, 9079.0, 9077.0, 9068.0, 9066.0, 9052.0, 9067.0, 9077.0, 9080.0, 9075.0, 9087.0, 9082.0, 9095.0, 9082.0, 9077.0, 9070.0, 9074.0, 9059.0, 9059.0, 9063.0, 9080.0, 9095.0, 9095.0, 9102.0, 9101.0, 9079.0, 9075.0, 9067.0, 9065.0, 9066.0, 9067.0, 9064.0, 9078.0, 9084.0, 9070.0, 9070.0, 9072.0, 9078.0, 9083.0, 9078.0, 9085.0, 9087.0, 9094.0, 9095.0, 9094.0, 9084.0, 9068.0, 9065.0, 9051.0, 9057.0, 9050.0, 9061.0, 9070.0, 9060.0, 9074.0, 9073.0, 9061.0, 9060.0, 9059.0, 9064.0, 9057.0, 9066.0, 9066.0, 9059.0, 9070.0, 9060.0, 9075.0, 9081.0, 9074.0, 9073.0, 9066.0, 9064.0, 9048.0, 9053.0, 9053.0, 9062.0, 9065.0, 9064.0, 9071.0, 9072.0, 9057.0, 9053.0, 9038.0, 9044.0, 9045.0, 9052.0, 9040.0, 9041.0, 9055.0, 9071.0, 9068.0, 9084.0, 9085.0, 9088.0, 9089.0, 9096.0, 9091.0, 9092.0, 9113.0, 9108.0, 9113.0, 9105.0, 9111.0, 9099.0, 9104.0, 9078.0, 9059.0, 9037.0, 9056.0, 9050.0, 9050.0, 9051.0, 9050.0, 9050.0, 9030.0, 9036.0, 9028.0, 9038.0, 9040.0, 9049.0, 9068.0, 9078.0, 9087.0, 9086.0, 9065.0, 9065.0, 9060.0, 9069.0, 9049.0, 9040.0, 9036.0, 9033.0, 9046.0, 9040.0, 9048.0, 9070.0, 9070.0, 9080.0, 9087.0, 9079.0, 9078.0, 9062.0, 9067.0, 9060.0, 9070.0, 9068.0, 9059.0, 9048.0, 9038.0, 9037.0, 9036.0, 9030.0, 9029.0, 9013.0, 9002.0, 9000.0, 9007.0, 9026.0, 9046.0, 9064.0, 9065.0, 9063.0, 9066.0, 9062.0, 9063.0, 9056.0, 9058.0, 9077.0, 9112.0, 9125.0, 9126.0, 9102.0, 9075.0, 9053.0, 9036.0, 9026.0, 9018.0, 9013.0, 9029.0, 9049.0, 9060.0, 9058.0, 9054.0, 9065.0, 9070.0, 9088.0, 9076.0, 9061.0, 9067.0, 9072.0, 9081.0, 9086.0, 9060.0, 9067.0, 9106.0, 9085.0, 9087.0, 9088.0, 9070.0, 9058.0, 9034.0, 9015.0, 9005.0, 9010.0, 9002.0, 9008.0, 9009.0, 9009.0, 9019.0, 9036.0, 9033.0, 9047.0, 9033.0, 9031.0, 9044.0, 9032.0, 9018.0, 9009.0, 9032.0, 9019.0, 9035.0, 9035.0, 9038.0, 9053.0, 9048.0, 9060.0, 9055.0, 9069.0, 9064.0, 9051.0, 9047.0, 9056.0, 9046.0, 9041.0, 9040.0, 9061.0, 9077.0, 9077.0, 9049.0, 9044.0, 9027.0, 9025.0, 9029.0, 8988.0, 8963.0, 8942.0, 8926.0, 8944.0, 8954.0, 8958.0, 8958.0, 8950.0, 8941.0, 8945.0, 8963.0],
      "WindowWidth": [19536.0, 19420.0, 19373.0, 19359.0, 19359.0, 19343.0, 19330.0, 19350.0, 19358.0, 19306.0, 19281.0, 19275.0, 19256.0, 19252.0, 19225.0, 19253.0, 19277.0, 19287.0, 19282.0, 19301.0, 19297.0, 19318.0, 19293.0, 19279.0, 19266.0, 19271.0, 19243.0, 19244.0, 19258.0, 19294.0, 19320.0, 19321.0, 19331.0, 19328.0, 19286.0, 19274.0, 19257.0, 19252.0, 19253.0, 19259.0, 19261.0, 19286.0, 19293.0, 19269.0, 19271.0, 19275.0, 19284.0, 19293.0, 19285.0, 19296.0, 19305.0, 19316.0, 19317.0, 19314.0, 19290.0, 19256.0, 19247.0, 19224.0, 19233.0, 19223.0, 19237.0, 19255.0, 19247.0, 19269.0, 19266.0, 19247.0, 19244.0, 19241.0, 19244.0, 19234.0, 19253.0, 19253.0, 19240.0, 19254.0, 19243.0, 19271.0, 19283.0, 19270.0, 19265.0, 19251.0, 19245.0, 19217.0, 19223.0, 19219.0, 19239.0, 19249.0, 19247.0, 19259.0, 19263.0, 19233.0, 19221.0, 19193.0, 19205.0, 19209.0, 19222.0, 19206.0, 19207.0, 19233.0, 19264.0, 19265.0, 19296.0, 19300.0, 19308.0, 19312.0, 19324.0, 19318.0, 19322.0, 19361.0, 19354.0, 19358.0, 19342.0, 19351.0, 19331.0, 19336.0, 19282.0, 19242.0, 19200.0, 19231.0, 19225.0, 19226.0, 19226.0, 19226.0, 19224.0, 19194.0, 19201.0, 19184.0, 19193.0, 19202.0, 19220.0, 19266.0, 19288.0, 19306.0, 19303.0, 19263.0, 19262.0, 19257.0, 19265.0, 19230.0, 19212.0, 19199.0, 19201.0, 19224.0, 19214.0, 19231.0, 19272.0, 19273.0, 19296.0, 19321.0, 19298.0, 19297.0, 19261.0, 19270.0, 19255.0, 19275.0, 19270.0, 19249.0, 19226.0, 19207.0, 19203.0, 19202.0, 19196.0, 19192.0, 19161.0, 19137.0, 19129.0, 19137.0, 19179.0, 19226.0, 19263.0, 19269.0, 19258.0, 19272.0, 19271.0, 19258.0, 19247.0, 19254.0, 19293.0, 19368.0, 19399.0, 19399.0, 19354.0, 19294.0, 19244.0, 19211.0, 19190.0, 19160.0, 19159.0, 19189.0, 19237.0, 19262.0, 19251.0, 19251.0, 19268.0, 19284.0, 19324.0, 19289.0, 19260.0, 19269.0, 19287.0, 19309.0, 19311.0, 19255.0, 19263.0, 19331.0, 19303.0, 19312.0, 19316.0, 19273.0, 19245.0, 19197.0, 19157.0, 19137.0, 19140.0, 19124.0, 19136.0, 19140.0, 19142.0, 19164.0, 19198.0, 19197.0, 19222.0, 19198.0, 19191.0, 19211.0, 19184.0, 19158.0, 19137.0, 19185.0, 19163.0, 19192.0, 19194.0, 19205.0, 19231.0, 19229.0, 19245.0, 19243.0, 19265.0, 19261.0, 19236.0, 19224.0, 19243.0, 19220.0, 19215.0, 19211.0, 19248.0, 19282.0, 19279.0, 19228.0, 19210.0, 19180.0, 19173.0, 19177.0, 19092.0, 19040.0, 18990.0, 18964.0, 18993.0, 19019.0, 19032.0, 19035.0, 19017.0, 18995.0, 19011.0, 19051.0]
    },
    "slices": {}
  },
  "NumberOfVolumes": 264
}