{
  "AcquisitionMatrixPE": 104,
  "AcquisitionNumber": 1,
  "AcquisitionTime": "11:15:8.492500",
  "BandwidthPerPixelPhaseEncode": 16.578,
  "BaseResolution": 104,
  "BodyPartExamined": "BRAIN",
  "ConsistencyInfo": "N4_VE11C_LATEST_20160120",
  "ConversionSoftware": "dcm2niix",
  "ConversionSoftwareVersion": "v1.0.20190410  GCC6.3.0",
  "DerivedVendorReportedEchoSpacing": 0.000580009,
  "DeviceSerialNumber": "166018",
  "DwellTime": 2.1e-06,
  "EchoTime": 0.037,
  "EchoTrainLength": 104,
  "EffectiveEchoSpacing": 0.000580009,
  "FlipAngle": 68,
  "ImageComments": "Unaliased_MB6_PE3_LB",
  "ImageOrientationPatientDICOM": [0.998853, -0.0388923, 0.0279193, 0.0430869, 0.984487, -0.170083],
  "ImageType": [
    "ORIGINAL",
    "PRIMARY",
    "M",
    "MB",
    "ND",
    "MOSAIC"
],
  "ImagingFrequency": 123.191,
  "InPlanePhaseEncodingDirectionDICOM": "COL",
  "InstitutionAddress": "Washington_Place_6_NYC_NYC_US_10003",
  "InstitutionName": "NYU_-_CBI",
  "InstitutionalDepartmentName": "Department",
  "MRAcquisitionType": "2D",
  "MagneticFieldStrength": 3,
  "Manufacturer": "Siemens",
  "ManufacturersModelName": "Prisma",
  "Modality": "MR",
  "MultibandAccelerationFactor": 6,
  "PartialFourier": 1,
  "PatientPosition": "HFS",
  "PercentPhaseFOV": 100,
  "PhaseEncodingDirection": "j",
  "PhaseEncodingSteps": 104,
  "PhaseResolution": 1,
  "PixelBandwidth": 2290,
  "ProcedureStepDescription": "Investigators_Winawer",
  "ProtocolName": "task-sfprescaled_cmrr_mbepi_s6_2mm_66sl_PA_TR1.0",
  "PulseSequenceDetails": "%CustomerSeq%_cmrr_mbep2d_bold",
  "ReceiveCoilActiveElements": "HC1-7",
  "ReceiveCoilName": "HeadNeck_64",
  "ReconMatrixPE": 104,
  "RepetitionTime": 1,
  "SAR": 0.0728078,
  "ScanOptions": "FS",
  "ScanningSequence": "EP",
  "SequenceName": "epfid2d1_104",
  "SequenceVariant": "SK_SS",
  "SeriesDescription": "task-sfprescaled_cmrr_mbepi_s6_2mm_66sl_PA_TR1.0",
  "SeriesNumber": 20,
  "ShimSetting": [252, -12611, -8531, 327, -46, -7, 35, 0],
  "SliceThickness": 2,
  "SliceTiming": [0, 0.535, 0.09, 0.625, 0.18, 0.7125, 0.2675, 0.8025, 0.3575, 0.8925, 0.4475, 0, 0.535, 0.09, 0.625, 0.18, 0.7125, 0.2675, 0.8025, 0.3575, 0.8925, 0.4475, 0, 0.535, 0.09, 0.625, 0.18, 0.7125, 0.2675, 0.8025, 0.3575, 0.8925, 0.4475, 0, 0.535, 0.09, 0.625, 0.18, 0.7125, 0.2675, 0.8025, 0.3575, 0.8925, 0.4475, 0, 0.535, 0.09, 0.625, 0.18, 0.7125, 0.2675, 0.8025, 0.3575, 0.8925, 0.4475, 0, 0.535, 0.09, 0.625, 0.18, 0.7125, 0.2675, 0.8025, 0.3575, 0.8925, 0.4475],
  "SoftwareVersions": "syngo_MR_E11",
  "SpacingBetweenSlices": 2,
  "StationName": "AWP166018",
  "TaskName": "sfprescaled",
  "TotalReadoutTime": 0.0597409,
  "TxRefAmp": 216.634,
  "WipMemBlock": "0147bbda-03b7-44ae-b501-601ec328b3ca||Sequence: R016 ve11c/master r/8780670; Nov 27 2017 15:05:12 by eja",
  "dcmmeta_affine": [
    [-1.9977065324783325, 0.0861738920211792, 0.04174263775348663, 103.73658752441406],
    [0.07778450101613998, 1.9689745903015137, -0.34218233823776245, -73.6180648803711],
    [0.0558386854827404, 0.34016647934913635, 1.970068335533142, -67.41401672363281],
    [0.0, 0.0, 0.0, 1.0]
],
  "dcmmeta_reorient_transform": [
    [0.0, -1.0, 0.0, 103.0],
    [1.0, 0.0, 0.0, 0.0],
    [0.0, 0.0, 1.0, 0.0],
    [0.0, 0.0, 0.0, 1.0]
],
  "dcmmeta_shape": [104, 104, 66, 264],
  "dcmmeta_slice_dim": 2,
  "dcmmeta_version": 0.6,
  "global": {
    "const": {
      "AccessionNumber": "k5odmn64",
      "AcquisitionMatrix": [104, 0, 0, 104],
      "AngioFlag": "N",
      "BitsAllocated": 16,
      "BitsStored": 16,
      "BodyPartExamined": "BRAIN",
      "Columns": 936,
      "EchoNumbers": 1,
      "EchoTime": 37.0,
      "EchoTrainLength": 104,
      "FlipAngle": 68.0,
      "HighBit": 15,
      "ImageOrientationPatient": [0.99885329406993, -0.0388922510526, 0.02791934336097, 0.04308694691435, 0.98448728111066, -0.1700832394357],
      "ImagePositionPatient": [-979.50677938651, -915.92138287249, 85.903491900522],
      "ImageType": [
        "ORIGINAL",
        "PRIMARY",
        "M",
        "MB",
        "ND",
        "MOSAIC"
],
      "ImagedNucleus": "1H",
      "ImagingFrequency": 123.190755,
      "InPlanePhaseEncodingDirection": "COL",
      "MRAcquisitionType": "2D",
      "MagneticFieldStrength": 3.0,
      "Manufacturer": "SIEMENS",
      "ManufacturerModelName": "Prisma",
      "Modality": "MR",
      "NumberOfAverages": 1.0,
      "NumberOfPhaseEncodingSteps": 104,
      "PercentPhaseFieldOfView": 100.0,
      "PercentSampling": 100.0,
      "PerformedProcedureStepStartTime": "103156.857000",
      "PhotometricInterpretation": "MONOCHROME2",
      "PixelBandwidth": 2290.0,
      "PixelRepresentation": 0,
      "PixelSpacing": [2.0, 2.0],
      "ProtocolName": "task-sfprescaled_cmrr_mbepi_s6_2mm_66sl_PA_TR1.0",
      "RepetitionTime": 1000.0,
      "Rows": 936,
      "SAR": 0.07280780157127,
      "SamplesPerPixel": 1,
      "ScanOptions": "FS",
      "ScanningSequence": "EP",
      "SequenceName": "epfid2d1_104",
      "SequenceVariant": [
        "SK",
        "SS"
],
      "SeriesDescription": "task-sfprescaled_cmrr_mbepi_s6_2mm_66sl_PA_TR1.0",
      "SeriesNumber": 20,
      "SeriesTime": "111601.901000",
      "SliceLocation": -51.644587110569,
      "SliceThickness": 2.0,
      "SmallestImagePixelValue": 0,
      "SoftwareVersions": "syngo MR E11",
      "SpacingBetweenSlices": 2.0000000771805,
      "SpecificCharacterSet": "ISO_IR 100",
      "StudyID": "1",
      "StudyTime": "103156.795000",
      "TransmitCoilName": "Body",
      "VariableFlipAngleFlag": "N",
      "WindowCenterWidthExplanation": "Algo1",
      "dBdt": 0.0},
    "slices": {}
  },
  "time": {
    "samples": {
      "AcquisitionNumber": [1, 2, 3, 4, 5, 6, 7, 8, 9, 10, 11, 12, 13, 14, 15, 16, 17, 18, 19, 20, 21, 22, 23, 24, 25, 26, 27, 28, 29, 30, 31, 32, 33, 34, 35, 36, 37, 38, 39, 40, 41, 42, 43, 44, 45, 46, 47, 48, 49, 50, 51, 52, 53, 54, 55, 56, 57, 58, 59, 60, 61, 62, 63, 64, 65, 66, 67, 68, 69, 70, 71, 72, 73, 74, 75, 76, 77, 78, 79, 80, 81, 82, 83, 84, 85, 86, 87, 88, 89, 90, 91, 92, 93, 94, 95, 96, 97, 98, 99, 100, 101, 102, 103, 104, 105, 106, 107, 108, 109, 110, 111, 112, 113, 114, 115, 116, 117, 118, 119, 120, 121, 122, 123, 124, 125, 126, 127, 128, 129, 130, 131, 132, 133, 134, 135, 136, 137, 138, 139, 140, 141, 142, 143, 144, 145, 146, 147, 148, 149, 150, 151, 152, 153, 154, 155, 156, 157, 158, 159, 160, 161, 162, 163, 164, 165, 166, 167, 168, 169, 170, 171, 172, 173, 174, 175, 176, 177, 178, 179, 180, 181, 182, 183, 184, 185, 186, 187, 188, 189, 190, 191, 192, 193, 194, 195, 196, 197, 198, 199, 200, 201, 202, 203, 204, 205, 206, 207, 208, 209, 210, 211, 212, 213, 214, 215, 216, 217, 218, 219, 220, 221, 222, 223, 224, 225, 226, 227, 228, 229, 230, 231, 232, 233, 234, 235, 236, 237, 238, 239, 240, 241, 242, 243, 244, 245, 246, 247, 248, 249, 250, 251, 252, 253, 254, 255, 256, 257, 258, 259, 260, 261, 262, 263, 264],
      "AcquisitionTime": ["111508.492500", "111509.492500", "111510.492500", "111511.492500", "111512.492500", "111513.492500", "111514.492500", "111515.492500", "111516.492500", "111517.492500", "111518.492500", "111519.492500", "111520.492500", "111521.492500", "111522.492500", "111523.492500", "111524.492500", "111525.492500", "111526.492500", "111527.492500", "111528.492500", "111529.492500", "111530.492500", "111531.492500", "111532.492500", "111533.492500", "111534.492500", "111535.492500", "111536.492500", "111537.492500", "111538.492500", "111539.492500", "111540.492500", "111541.492500", "111542.492500", "111543.492500", "111544.492500", "111545.492500", "111546.492500", "111547.492500", "111548.492500", "111549.492500", "111550.492500", "111551.492500", "111552.492500", "111553.492500", "111554.492500", "111555.492500", "111556.492500", "111557.492500", "111558.492500", "111559.492500", "111600.492500", "111601.492500", "111602.492500", "111603.492500", "111604.492500", "111605.492500", "111606.492500", "111607.492500", "111608.492500", "111609.492500", "111610.492500", "111611.492500", "111612.492500", "111613.492500", "111614.492500", "111615.492500", "111616.492500", "111617.492500", "111618.492500", "111619.492500", "111620.492500", "111621.492500", "111622.492500", "111623.492500", "111624.492500", "111625.492500", "111626.492500", "111627.492500", "111628.492500", "111629.492500", "111630.492500", "111631.492500", "111632.492500", "111633.492500", "111634.492500", "111635.492500", "111636.492500", "111637.492500", "111638.492500", "111639.492500", "111640.492500", "111641.492500", "111642.492500", "111643.492500", "111644.492500", "111645.492500", "111646.492500", "111647.492500", "111648.492500", "111649.492500", "111650.492500", "111651.492500", "111652.492500", "111653.492500", "111654.492500", "111655.492500", "111656.492500", "111657.492500", "111658.492500", "111659.492500", "111700.492500", "111701.492500", "111702.492500", "111703.492500", "111704.492500", "111705.492500", "111706.492500", "111707.492500", "111708.492500", "111709.492500", "111710.492500", "111711.492500", "111712.492500", "111713.492500", "111714.492500", "111715.492500", "111716.492500", "111717.492500", "111718.492500", "111719.492500", "111720.492500", "111721.492500", "111722.492500", "111723.492500", "111724.492500", "111725.492500", "111726.492500", "111727.492500", "111728.492500", "111729.492500", "111730.492500", "111731.492500", "111732.492500", "111733.492500", "111734.492500", "111735.492500", "111736.492500", "111737.492500", "111738.492500", "111739.492500", "111740.492500", "111741.492500", "111742.492500", "111743.492500", "111744.492500", "111745.492500", "111746.492500", "111747.492500", "111748.492500", "111749.492500", "111750.492500", "111751.492500", "111752.492500", "111753.492500", "111754.492500", "111755.492500", "111756.492500", "111757.492500", "111758.492500", "111759.492500", "111800.492500", "111801.492500", "111802.492500", "111803.492500", "111804.492500", "111805.492500", "111806.492500", "111807.492500", "111808.492500", "111809.492500", "111810.492500", "111811.492500", "111812.492500", "111813.492500", "111814.492500", "111815.492500", "111816.492500", "111817.492500", "111818.492500", "111819.492500", "111820.492500", "111821.492500", "111822.492500", "111823.492500", "111824.492500", "111825.492500", "111826.492500", "111827.492500", "111828.492500", "111829.492500", "111830.492500", "111831.492500", "111832.492500", "111833.492500", "111834.492500", "111835.492500", "111836.492500", "111837.492500", "111838.492500", "111839.492500", "111840.492500", "111841.492500", "111842.492500", "111843.492500", "111844.492500", "111845.492500", "111846.492500", "111847.492500", "111848.492500", "111849.492500", "111850.492500", "111851.492500", "111852.492500", "111853.492500", "111854.492500", "111855.492500", "111856.492500", "111857.492500", "111858.492500", "111859.492500", "111900.492500", "111901.492500", "111902.492500", "111903.492500", "111904.492500", "111905.492500", "111906.492500", "111907.492500", "111908.492500", "111909.492500", "111910.492500", "111911.492500", "111912.492500", "111913.492500", "111914.492500", "111915.492500", "111916.492500", "111917.492500", "111918.492500", "111919.492500", "111920.492500", "111921.492500", "111922.492500", "111923.492500", "111924.492500", "111925.492500", "111926.492500", "111927.492500", "111928.492500", "111929.492500", "111930.492500", "111931.492500"],
      "ContentTime": ["111601.903000", "111601.907000", "111601.910000", "111601.913000", "111601.916000", "111621.865000", "111621.868000", "111621.871000", "111621.874000", "111621.877000", "111621.880000", "111621.883000", "111621.886000", "111621.889000", "111621.892000", "111621.895000", "111621.898000", "111621.901000", "111621.912000", "111621.914000", "111621.917000", "111621.920000", "111621.924000", "111621.927000", "111621.930000", "111621.933000", "111621.936000", "111621.939000", "111621.941000", "111621.944000", "111621.947000", "111621.950000", "111621.953000", "111621.956000", "111641.865000", "111641.868000", "111641.871000", "111641.874000", "111641.877000", "111641.880000", "111641.883000", "111641.886000", "111641.889000", "111641.892000", "111641.898000", "111641.901000", "111641.904000", "111641.907000", "111641.910000", "111641.913000", "111641.916000", "111641.919000", "111641.922000", "111641.925000", "111641.928000", "111641.931000", "111641.933000", "111641.939000", "111641.942000", "111641.945000", "111641.948000", "111641.951000", "111701.865000", "111701.868000", "111701.871000", "111701.874000", "111701.877000", "111701.880000", "111701.883000", "111701.887000", "111701.891000", "111701.894000", "111701.896000", "111701.899000", "111701.903000", "111701.905000", "111701.908000", "111701.911000", "111701.915000", "111701.918000", "111701.920000", "111701.923000", "111701.927000", "111701.929000", "111701.932000", "111701.935000", "111701.938000", "111701.941000", "111701.944000", "111701.947000", "111721.865000", "111721.868000", "111721.871000", "111721.874000", "111721.877000", "111721.880000", "111721.883000", "111721.886000", "111721.889000", "111721.892000", "111721.895000", "111721.898000", "111721.901000", "111721.904000", "111721.907000", "111721.910000", "111721.913000", "111721.916000", "111721.919000", "111721.922000", "111721.925000", "111721.928000", "111721.931000", "111721.934000", "111721.937000", "111721.940000", "111721.943000", "111721.946000", "111741.865000", "111741.868000", "111741.871000", "111741.874000", "111741.877000", "111741.880000", "111741.883000", "111741.886000", "111741.889000", "111741.892000", "111741.895000", "111741.898000", "111741.901000", "111741.904000", "111741.907000", "111741.910000", "111741.921000", "111741.938000", "111741.942000", "111741.945000", "111741.948000", "111741.951000", "111741.954000", "111741.957000", "111741.960000", "111741.963000", "111741.966000", "111741.969000", "111801.865000", "111801.868000", "111801.871000", "111801.874000", "111801.877000", "111801.880000", "111801.883000", "111801.886000", "111801.889000", "111801.892000", "111801.895000", "111801.898000", "111801.901000", "111801.904000", "111801.907000", "111801.910000", "111801.914000", "111801.917000", "111801.919000", "111801.922000", "111801.926000", "111801.929000", "111801.932000", "111801.934000", "111801.938000", "111801.940000", "111821.865000", "111821.868000", "111821.871000", "111821.874000", "111821.877000", "111821.880000", "111821.883000", "111821.886000", "111821.889000", "111821.892000", "111821.895000", "111821.898000", "111821.901000", "111821.904000", "111821.908000", "111821.910000", "111821.914000", "111821.917000", "111821.920000", "111821.923000", "111841.865000", "111841.868000", "111841.871000", "111841.874000", "111841.877000", "111841.880000", "111841.883000", "111841.886000", "111841.889000", "111841.892000", "111841.901000", "111841.904000", "111841.907000", "111841.910000", "111841.913000", "111841.916000", "111841.919000", "111841.922000", "111841.925000", "111841.928000", "111901.865000", "111901.868000", "111901.871000", "111901.874000", "111901.877000", "111901.880000", "111901.883000", "111901.886000", "111901.889000", "111901.892000", "111901.895000", "111901.898000", "111901.901000", "111901.904000", "111901.907000", "111901.911000", "111901.913000", "111901.916000", "111901.920000", "111901.923000", "111921.865000", "111921.868000", "111921.871000", "111921.874000", "111921.877000", "111921.880000", "111921.883000", "111921.886000", "111921.889000", "111921.892000", "111921.895000", "111921.898000", "111921.901000", "111921.904000", "111921.907000", "111921.910000", "111921.913000", "111921.916000", "111921.920000", "111921.923000", "111933.614000", "111933.619000", "111933.623000", "111933.626000", "111933.629000", "111933.632000", "111933.636000", "111933.639000", "111933.645000", "111933.650000", "111933.654000", "111933.657000"],
      "InstanceCreationTime": ["111601.903000", "111601.907000", "111601.910000", "111601.913000", "111601.916000", "111621.865000", "111621.868000", "111621.871000", "111621.874000", "111621.877000", "111621.880000", "111621.883000", "111621.886000", "111621.889000", "111621.892000", "111621.895000", "111621.898000", "111621.901000", "111621.912000", "111621.914000", "111621.917000", "111621.920000", "111621.924000", "111621.927000", "111621.930000", "111621.933000", "111621.936000", "111621.939000", "111621.941000", "111621.944000", "111621.947000", "111621.950000", "111621.953000", "111621.956000", "111641.865000", "111641.868000", "111641.871000", "111641.874000", "111641.877000", "111641.880000", "111641.883000", "111641.886000", "111641.889000", "111641.892000", "111641.898000", "111641.901000", "111641.904000", "111641.907000", "111641.910000", "111641.913000", "111641.916000", "111641.919000", "111641.922000", "111641.925000", "111641.928000", "111641.931000", "111641.933000", "111641.939000", "111641.942000", "111641.945000", "111641.948000", "111641.951000", "111701.865000", "111701.868000", "111701.871000", "111701.874000", "111701.877000", "111701.880000", "111701.883000", "111701.887000", "111701.891000", "111701.894000", "111701.896000", "111701.899000", "111701.903000", "111701.905000", "111701.908000", "111701.911000", "111701.915000", "111701.918000", "111701.920000", "111701.923000", "111701.927000", "111701.929000", "111701.932000", "111701.935000", "111701.938000", "111701.941000", "111701.944000", "111701.947000", "111721.865000", "111721.868000", "111721.871000", "111721.874000", "111721.877000", "111721.880000", "111721.883000", "111721.886000", "111721.889000", "111721.892000", "111721.895000", "111721.898000", "111721.901000", "111721.904000", "111721.907000", "111721.910000", "111721.913000", "111721.916000", "111721.919000", "111721.922000", "111721.925000", "111721.928000", "111721.931000", "111721.934000", "111721.937000", "111721.940000", "111721.943000", "111721.946000", "111741.865000", "111741.868000", "111741.871000", "111741.874000", "111741.877000", "111741.880000", "111741.883000", "111741.886000", "111741.889000", "111741.892000", "111741.895000", "111741.898000", "111741.901000", "111741.904000", "111741.907000", "111741.910000", "111741.921000", "111741.938000", "111741.942000", "111741.945000", "111741.948000", "111741.951000", "111741.954000", "111741.957000", "111741.960000", "111741.963000", "111741.966000", "111741.969000", "111801.865000", "111801.868000", "111801.871000", "111801.874000", "111801.877000", "111801.880000", "111801.883000", "111801.886000", "111801.889000", "111801.892000", "111801.895000", "111801.898000", "111801.901000", "111801.904000", "111801.907000", "111801.910000", "111801.914000", "111801.917000", "111801.919000", "111801.922000", "111801.926000", "111801.929000", "111801.932000", "111801.934000", "111801.938000", "111801.940000", "111821.865000", "111821.868000", "111821.871000", "111821.874000", "111821.877000", "111821.880000", "111821.883000", "111821.886000", "111821.889000", "111821.892000", "111821.895000", "111821.898000", "111821.901000", "111821.904000", "111821.908000", "111821.910000", "111821.914000", "111821.917000", "111821.920000", "111821.923000", "111841.865000", "111841.868000", "111841.871000", "111841.874000", "111841.877000", "111841.880000", "111841.883000", "111841.886000", "111841.889000", "111841.892000", "111841.901000", "111841.904000", "111841.907000", "111841.910000", "111841.913000", "111841.916000", "111841.919000", "111841.922000", "111841.925000", "111841.928000", "111901.865000", "111901.868000", "111901.871000", "111901.874000", "111901.877000", "111901.880000", "111901.883000", "111901.886000", "111901.889000", "111901.892000", "111901.895000", "111901.898000", "111901.901000", "111901.904000", "111901.907000", "111901.911000", "111901.913000", "111901.916000", "111901.920000", "111901.923000", "111921.865000", "111921.868000", "111921.871000", "111921.874000", "111921.877000", "111921.880000", "111921.883000", "111921.886000", "111921.889000", "111921.892000", "111921.895000", "111921.898000", "111921.901000", "111921.904000", "111921.907000", "111921.910000", "111921.913000", "111921.916000", "111921.920000", "111921.923000", "111933.614000", "111933.619000", "111933.623000", "111933.626000", "111933.629000", "111933.632000", "111933.636000", "111933.639000", "111933.645000", "111933.650000", "111933.654000", "111933.657000"],
      "InstanceNumber": [1, 2, 3, 4, 5, 6, 7, 8, 9, 10, 11, 12, 13, 14, 15, 16, 17, 18, 19, 20, 21, 22, 23, 24, 25, 26, 27, 28, 29, 30, 31, 32, 33, 34, 35, 36, 37, 38, 39, 40, 41, 42, 43, 44, 45, 46, 47, 48, 49, 50, 51, 52, 53, 54, 55, 56, 57, 58, 59, 60, 61, 62, 63, 64, 65, 66, 67, 68, 69, 70, 71, 72, 73, 74, 75, 76, 77, 78, 79, 80, 81, 82, 83, 84, 85, 86, 87, 88, 89, 90, 91, 92, 93, 94, 95, 96, 97, 98, 99, 100, 101, 102, 103, 104, 105, 106, 107, 108, 109, 110, 111, 112, 113, 114, 115, 116, 117, 118, 119, 120, 121, 122, 123, 124, 125, 126, 127, 128, 129, 130, 131, 132, 133, 134, 135, 136, 137, 138, 139, 140, 141, 142, 143, 144, 145, 146, 147, 148, 149, 150, 151, 152, 153, 154, 155, 156, 157, 158, 159, 160, 161, 162, 163, 164, 165, 166, 167, 168, 169, 170, 171, 172, 173, 174, 175, 176, 177, 178, 179, 180, 181, 182, 183, 184, 185, 186, 187, 188, 189, 190, 191, 192, 193, 194, 195, 196, 197, 198, 199, 200, 201, 202, 203, 204, 205, 206, 207, 208, 209, 210, 211, 212, 213, 214, 215, 216, 217, 218, 219, 220, 221, 222, 223, 224, 225, 226, 227, 228, 229, 230, 231, 232, 233, 234, 235, 236, 237, 238, 239, 240, 241, 242, 243, 244, 245, 246, 247, 248, 249, 250, 251, 252, 253, 254, 255, 256, 257, 258, 259, 260, 261, 262, 263, 264],
      "LargestImagePixelValue": [33787, 32179, 31480, 30766, 30395, 30205, 30223, 30227, 30677, 30642, 30702, 30728, 30288, 30443, 30594, 30363, 30367, 30440, 30208, 30409, 32721, 30197, 30783, 30913, 30014, 30682, 30611, 30629, 30512, 30227, 30728, 30777, 30581, 31152, 31304, 31424, 30508, 30662, 30289, 30051, 30109, 30281, 30179, 30048, 30284, 30426, 30278, 30457, 30075, 30053, 30159, 32683, 30107, 29978, 30027, 30196, 29949, 30035, 30215, 29851, 29908, 29955, 29835, 30463, 30639, 30421, 30256, 30189, 30115, 29953, 30116, 30366, 29440, 29952, 30759, 29904, 29954, 29507, 29657, 30119, 29610, 29477, 30815, 29169, 29512, 30013, 30146, 30051, 30269, 29827, 30097, 30047, 29866, 30062, 30006, 29800, 29978, 29441, 29762, 30062, 30045, 30140, 30858, 31415, 29880, 29762, 29905, 30642, 30120, 30095, 30373, 30244, 30157, 29787, 29744, 30513, 30306, 29849, 30553, 30427, 30461, 30457, 30009, 31734, 30460, 30114, 30252, 30677, 30110, 30436, 30209, 29947, 30321, 30674, 30268, 29962, 30226, 30178, 31066, 30130, 31284, 30629, 30557, 30080, 32072, 31607, 30228, 30257, 30376, 30238, 30137, 32387, 32300, 31846, 30075, 29708, 29856, 30259, 30788, 30989, 30508, 30248, 29987, 31875, 29401, 30637, 30607, 29706, 29571, 29816, 29796, 29935, 30251, 29889, 30008, 29732, 30175, 30137, 29920, 31379, 30499, 30090, 30166, 29838, 30100, 29820, 29365, 29524, 29956, 31557, 31317, 29723, 29426, 32161, 31273, 30024, 30517, 30452, 32044, 30574, 30192, 30083, 30314, 30613, 30351, 30611, 30236, 30764, 30648, 30996, 30654, 30260, 30628, 29639, 30297, 30124, 30111, 30149, 30128, 30435, 30147, 30498, 29800, 30261, 30153, 30088, 30271, 30467, 30439, 30814, 30465, 30864, 32051, 31867, 30712, 31052, 31084, 31503, 30901, 31013, 30967, 30801, 30889, 30287, 30385, 31211, 30413, 30045, 30256, 30356, 30648, 30704, 30262, 31200, 30606, 30544, 30135, 30654, 30684, 30697, 30621, 31499, 31004, 30963],
      "WindowCenter": [9184.0, 9143.0, 9126.0, 9105.0, 9097.0, 9092.0, 9100.0, 9081.0, 9083.0, 9073.0, 9073.0, 9079.0, 9066.0, 9072.0, 9071.0, 9064.0, 9064.0, 9052.0, 9046.0, 9055.0, 9093.0, 9057.0, 9081.0, 9088.0, 9070.0, 9080.0, 9081.0, 9073.0, 9064.0, 9064.0, 9085.0, 9104.0, 9108.0, 9116.0, 9123.0, 9121.0, 9096.0, 9092.0, 9075.0, 9050.0, 9039.0, 9029.0, 9012.0, 9003.0, 9007.0, 9018.0, 9035.0, 9033.0, 9037.0, 9047.0, 9064.0, 9108.0, 9076.0, 9076.0, 9075.0, 9069.0, 9068.0, 9069.0, 9059.0, 9060.0, 9063.0, 9068.0, 9070.0, 9087.0, 9099.0, 9083.0, 9071.0, 9063.0, 9066.0, 9075.0, 9077.0, 9085.0, 9074.0, 9082.0, 9084.0, 9043.0, 9056.0, 9041.0, 9057.0, 9076.0, 9074.0, 9059.0, 9065.0, 9012.0, 9014.0, 9034.0, 9044.0, 9055.0, 9065.0, 9060.0, 9058.0, 9041.0, 9020.0, 9023.0, 9013.0, 9005.0, 9003.0, 8997.0, 9011.0, 9016.0, 9027.0, 9036.0, 9077.0, 9104.0, 9092.0, 9086.0, 9073.0, 9091.0, 9069.0, 9075.0, 9084.0, 9085.0, 9072.0, 9055.0, 9018.0, 9037.0, 9046.0, 9049.0, 9072.0, 9072.0, 9075.0, 9073.0, 9041.0, 9062.0, 9025.0, 9018.0, 9017.0, 9024.0, 9026.0, 9034.0, 9027.0, 9027.0, 9035.0, 9036.0, 9028.0, 9029.0, 9030.0, 9032.0, 9057.0, 9044.0, 9075.0, 9081.0, 9091.0, 9079.0, 9127.0, 9114.0, 9073.0, 9070.0, 9059.0, 9049.0, 9041.0, 9078.0, 9064.0, 9054.0, 9001.0, 9001.0, 9020.0, 9051.0, 9077.0, 9096.0, 9084.0, 9078.0, 9053.0, 9075.0, 9013.0, 9024.0, 9024.0, 9004.0, 8994.0, 9016.0, 9019.0, 9046.0, 9080.0, 9088.0, 9089.0, 9074.0, 9054.0, 9033.0, 9021.0, 9019.0, 9006.0, 9000.0, 8998.0, 9002.0, 9010.0, 8996.0, 8982.0, 8982.0, 8998.0, 9038.0, 9024.0, 9008.0, 9016.0, 9074.0, 9064.0, 9027.0, 9042.0, 9049.0, 9086.0, 9068.0, 9067.0, 9061.0, 9051.0, 9046.0, 9028.0, 9016.0, 9000.0, 8997.0, 8995.0, 8995.0, 8985.0, 8987.0, 8993.0, 8992.0, 8998.0, 9006.0, 9006.0, 9010.0, 9019.0, 9027.0, 9028.0, 9028.0, 9024.0, 9028.0, 9022.0, 9017.0, 9033.0, 9045.0, 9063.0, 9070.0, 9073.0, 9074.0, 9092.0, 9072.0, 9037.0, 9042.0, 9057.0, 9057.0, 9065.0, 9069.0, 9076.0, 9054.0, 9051.0, 9038.0, 9036.0, 9041.0, 9021.0, 9023.0, 9031.0, 9026.0, 9041.0, 9051.0, 9064.0, 9086.0, 9083.0, 9074.0, 9068.0, 9073.0, 9074.0, 9071.0, 9069.0, 9082.0, 9070.0, 9078.0],
      "WindowWidth": [19544.0, 19446.0, 19402.0, 19362.0, 19342.0, 19336.0, 19353.0, 19308.0, 19301.0, 19282.0, 19283.0, 19292.0, 19269.0, 19282.0, 19279.0, 19266.0, 19267.0, 19237.0, 19228.0, 19250.0, 19311.0, 19256.0, 19305.0, 19314.0, 19289.0, 19303.0, 19309.0, 19287.0, 19270.0, 19268.0, 19305.0, 19345.0, 19360.0, 19376.0, 19386.0, 19381.0, 19340.0, 19327.0, 19293.0, 19238.0, 19213.0, 19191.0, 19158.0, 19142.0, 19144.0, 19171.0, 19206.0, 19194.0, 19210.0, 19234.0, 19267.0, 19336.0, 19292.0, 19291.0, 19286.0, 19279.0, 19282.0, 19285.0, 19256.0, 19263.0, 19276.0, 19280.0, 19290.0, 19325.0, 19344.0, 19309.0, 19275.0, 19264.0, 19272.0, 19291.0, 19302.0, 19317.0, 19303.0, 19322.0, 19315.0, 19225.0, 19250.0, 19224.0, 19254.0, 19294.0, 19301.0, 19274.0, 19271.0, 19171.0, 19162.0, 19197.0, 19222.0, 19244.0, 19266.0, 19263.0, 19252.0, 19219.0, 19179.0, 19180.0, 19158.0, 19144.0, 19143.0, 19134.0, 19157.0, 19158.0, 19187.0, 19202.0, 19288.0, 19347.0, 19340.0, 19330.0, 19292.0, 19323.0, 19280.0, 19290.0, 19310.0, 19314.0, 19292.0, 19258.0, 19170.0, 19204.0, 19223.0, 19234.0, 19279.0, 19277.0, 19283.0, 19281.0, 19216.0, 19240.0, 19173.0, 19160.0, 19158.0, 19170.0, 19178.0, 19198.0, 19182.0, 19182.0, 19203.0, 19207.0, 19191.0, 19194.0, 19195.0, 19206.0, 19248.0, 19223.0, 19278.0, 19300.0, 19323.0, 19301.0, 19388.0, 19363.0, 19292.0, 19280.0, 19253.0, 19234.0, 19218.0, 19285.0, 19254.0, 19232.0, 19125.0, 19130.0, 19173.0, 19232.0, 19283.0, 19327.0, 19307.0, 19296.0, 19244.0, 19278.0, 19176.0, 19176.0, 19178.0, 19143.0, 19116.0, 19163.0, 19165.0, 19224.0, 19295.0, 19323.0, 19323.0, 19293.0, 19247.0, 19201.0, 19175.0, 19158.0, 19135.0, 19129.0, 19120.0, 19134.0, 19154.0, 19129.0, 19091.0, 19093.0, 19127.0, 19196.0, 19166.0, 19150.0, 19178.0, 19276.0, 19264.0, 19185.0, 19211.0, 19226.0, 19298.0, 19265.0, 19274.0, 19261.0, 19240.0, 19221.0, 19186.0, 19153.0, 19124.0, 19116.0, 19109.0, 19112.0, 19088.0, 19094.0, 19106.0, 19113.0, 19120.0, 19138.0, 19137.0, 19150.0, 19169.0, 19185.0, 19189.0, 19190.0, 19193.0, 19188.0, 19183.0, 19159.0, 19192.0, 19221.0, 19262.0, 19270.0, 19279.0, 19283.0, 19310.0, 19264.0, 19203.0, 19211.0, 19238.0, 19238.0, 19255.0, 19266.0, 19278.0, 19239.0, 19226.0, 19204.0, 19198.0, 19203.0, 19173.0, 19181.0, 19198.0, 19175.0, 19208.0, 19230.0, 19265.0, 19299.0, 19303.0, 19282.0, 19274.0, 19279.0, 19288.0, 19274.0, 19268.0, 19286.0, 19268.0, 19285.0]
    },
    "slices": {}
  },
  "NumberOfVolumes": 264
}