{
  "AcquisitionMatrixPE": 104,
  "AcquisitionNumber": 1,
  "AcquisitionTime": "11:04:14.467500",
  "BandwidthPerPixelPhaseEncode": 16.578,
  "BaseResolution": 104,
  "BodyPartExamined": "BRAIN",
  "ConsistencyInfo": "N4_VE11C_LATEST_20160120",
  "ConversionSoftware": "dcm2niix",
  "ConversionSoftwareVersion": "v1.0.20190410  GCC6.3.0",
  "DerivedVendorReportedEchoSpacing": 0.000580009,
  "DeviceSerialNumber": "166018",
  "DwellTime": 2.1e-06,
  "EchoTime": 0.037,
  "EchoTrainLength": 104,
  "EffectiveEchoSpacing": 0.000580009,
  "FlipAngle": 68,
  "ImageComments": "Unaliased_MB6_PE3_LB",
  "ImageOrientationPatientDICOM": [0.998853, -0.0388923, 0.0279193, 0.0430869, 0.984487, -0.170083],
  "ImageType": [
    "ORIGINAL",
    "PRIMARY",
    "M",
    "MB",
    "ND",
    "MOSAIC"
],
  "ImagingFrequency": 123.191,
  "InPlanePhaseEncodingDirectionDICOM": "COL",
  "InstitutionAddress": "Washington_Place_6_NYC_NYC_US_10003",
  "InstitutionName": "NYU_-_CBI",
  "InstitutionalDepartmentName": "Department",
  "MRAcquisitionType": "2D",
  "MagneticFieldStrength": 3,
  "Manufacturer": "Siemens",
  "ManufacturersModelName": "Prisma",
  "Modality": "MR",
  "MultibandAccelerationFactor": 6,
  "PartialFourier": 1,
  "PatientPosition": "HFS",
  "PercentPhaseFOV": 100,
  "PhaseEncodingDirection": "j",
  "PhaseEncodingSteps": 104,
  "PhaseResolution": 1,
  "PixelBandwidth": 2290,
  "ProcedureStepDescription": "Investigators_Winawer",
  "ProtocolName": "task-sfprescaled_cmrr_mbepi_s6_2mm_66sl_PA_TR1.0",
  "PulseSequenceDetails": "%CustomerSeq%_cmrr_mbep2d_bold",
  "ReceiveCoilActiveElements": "HC1-7",
  "ReceiveCoilName": "HeadNeck_64",
  "ReconMatrixPE": 104,
  "RepetitionTime": 1,
  "SAR": 0.0728078,
  "ScanOptions": "FS",
  "ScanningSequence": "EP",
  "SequenceName": "epfid2d1_104",
  "SequenceVariant": "SK_SS",
  "SeriesDescription": "task-sfprescaled_cmrr_mbepi_s6_2mm_66sl_PA_TR1.0",
  "SeriesNumber": 16,
  "ShimSetting": [252, -12611, -8531, 327, -46, -7, 35, 0],
  "SliceThickness": 2,
  "SliceTiming": [0, 0.535, 0.09, 0.625, 0.18, 0.7125, 0.2675, 0.8025, 0.3575, 0.8925, 0.4475, 0, 0.535, 0.09, 0.625, 0.18, 0.7125, 0.2675, 0.8025, 0.3575, 0.8925, 0.4475, 0, 0.535, 0.09, 0.625, 0.18, 0.7125, 0.2675, 0.8025, 0.3575, 0.8925, 0.4475, 0, 0.535, 0.09, 0.625, 0.18, 0.7125, 0.2675, 0.8025, 0.3575, 0.8925, 0.4475, 0, 0.535, 0.09, 0.625, 0.18, 0.7125, 0.2675, 0.8025, 0.3575, 0.8925, 0.4475, 0, 0.535, 0.09, 0.625, 0.18, 0.7125, 0.2675, 0.8025, 0.3575, 0.8925, 0.4475],
  "SoftwareVersions": "syngo_MR_E11",
  "SpacingBetweenSlices": 2,
  "StationName": "AWP166018",
  "TaskName": "sfprescaled",
  "TotalReadoutTime": 0.0597409,
  "TxRefAmp": 216.634,
  "WipMemBlock": "0147bbda-03b7-44ae-b501-601ec328b3ca||Sequence: R016 ve11c/master r/8780670; Nov 27 2017 15:05:12 by eja",
  "dcmmeta_affine": [
    [-1.9977065324783325, 0.0861738920211792, 0.04174263775348663, 103.73658752441406],
    [0.07778450101613998, 1.9689745903015137, -0.34218233823776245, -73.6180648803711],
    [0.0558386854827404, 0.34016647934913635, 1.970068335533142, -67.41401672363281],
    [0.0, 0.0, 0.0, 1.0]
],
  "dcmmeta_reorient_transform": [
    [0.0, -1.0, 0.0, 103.0],
    [1.0, 0.0, 0.0, 0.0],
    [0.0, 0.0, 1.0, 0.0],
    [0.0, 0.0, 0.0, 1.0]
],
  "dcmmeta_shape": [104, 104, 66, 264],
  "dcmmeta_slice_dim": 2,
  "dcmmeta_version": 0.6,
  "global": {
    "const": {
      "AccessionNumber": "k5odmn64",
      "AcquisitionMatrix": [104, 0, 0, 104],
      "AngioFlag": "N",
      "BitsAllocated": 16,
      "BitsStored": 16,
      "BodyPartExamined": "BRAIN",
      "Columns": 936,
      "EchoNumbers": 1,
      "EchoTime": 37.0,
      "EchoTrainLength": 104,
      "FlipAngle": 68.0,
      "HighBit": 15,
      "ImageOrientationPatient": [0.99885329406993, -0.0388922510526, 0.02791934336097, 0.04308694691435, 0.98448728111066, -0.1700832394357],
      "ImagePositionPatient": [-979.50677938651, -915.92138287249, 85.903491900522],
      "ImageType": [
        "ORIGINAL",
        "PRIMARY",
        "M",
        "MB",
        "ND",
        "MOSAIC"
],
      "ImagedNucleus": "1H",
      "ImagingFrequency": 123.190755,
      "InPlanePhaseEncodingDirection": "COL",
      "MRAcquisitionType": "2D",
      "MagneticFieldStrength": 3.0,
      "Manufacturer": "SIEMENS",
      "ManufacturerModelName": "Prisma",
      "Modality": "MR",
      "NumberOfAverages": 1.0,
      "NumberOfPhaseEncodingSteps": 104,
      "PercentPhaseFieldOfView": 100.0,
      "PercentSampling": 100.0,
      "PerformedProcedureStepStartTime": "103156.857000",
      "PhotometricInterpretation": "MONOCHROME2",
      "PixelBandwidth": 2290.0,
      "PixelRepresentation": 0,
      "PixelSpacing": [2.0, 2.0],
      "ProtocolName": "task-sfprescaled_cmrr_mbepi_s6_2mm_66sl_PA_TR1.0",
      "RepetitionTime": 1000.0,
      "Rows": 936,
      "SAR": 0.07280780157127,
      "SamplesPerPixel": 1,
      "ScanOptions": "FS",
      "ScanningSequence": "EP",
      "SequenceName": "epfid2d1_104",
      "SequenceVariant": [
        "SK",
        "SS"
],
      "SeriesDescription": "task-sfprescaled_cmrr_mbepi_s6_2mm_66sl_PA_TR1.0",
      "SeriesNumber": 16,
      "SeriesTime": "110521.959000",
      "SliceLocation": -51.644587110569,
      "SliceThickness": 2.0,
      "SmallestImagePixelValue": 0,
      "SoftwareVersions": "syngo MR E11",
      "SpacingBetweenSlices": 2.0000000771805,
      "SpecificCharacterSet": "ISO_IR 100",
      "StudyID": "1",
      "StudyTime": "103156.795000",
      "TransmitCoilName": "Body",
      "VariableFlipAngleFlag": "N",
      "WindowCenterWidthExplanation": "Algo1",
      "dBdt": 0.0},
    "slices": {}
  },
  "time": {
    "samples": {
      "AcquisitionNumber": [1, 2, 3, 4, 5, 6, 7, 8, 9, 10, 11, 12, 13, 14, 15, 16, 17, 18, 19, 20, 21, 22, 23, 24, 25, 26, 27, 28, 29, 30, 31, 32, 33, 34, 35, 36, 37, 38, 39, 40, 41, 42, 43, 44, 45, 46, 47, 48, 49, 50, 51, 52, 53, 54, 55, 56, 57, 58, 59, 60, 61, 62, 63, 64, 65, 66, 67, 68, 69, 70, 71, 72, 73, 74, 75, 76, 77, 78, 79, 80, 81, 82, 83, 84, 85, 86, 87, 88, 89, 90, 91, 92, 93, 94, 95, 96, 97, 98, 99, 100, 101, 102, 103, 104, 105, 106, 107, 108, 109, 110, 111, 112, 113, 114, 115, 116, 117, 118, 119, 120, 121, 122, 123, 124, 125, 126, 127, 128, 129, 130, 131, 132, 133, 134, 135, 136, 137, 138, 139, 140, 141, 142, 143, 144, 145, 146, 147, 148, 149, 150, 151, 152, 153, 154, 155, 156, 157, 158, 159, 160, 161, 162, 163, 164, 165, 166, 167, 168, 169, 170, 171, 172, 173, 174, 175, 176, 177, 178, 179, 180, 181, 182, 183, 184, 185, 186, 187, 188, 189, 190, 191, 192, 193, 194, 195, 196, 197, 198, 199, 200, 201, 202, 203, 204, 205, 206, 207, 208, 209, 210, 211, 212, 213, 214, 215, 216, 217, 218, 219, 220, 221, 222, 223, 224, 225, 226, 227, 228, 229, 230, 231, 232, 233, 234, 235, 236, 237, 238, 239, 240, 241, 242, 243, 244, 245, 246, 247, 248, 249, 250, 251, 252, 253, 254, 255, 256, 257, 258, 259, 260, 261, 262, 263, 264],
      "AcquisitionTime": ["110414.467500", "110415.467500", "110416.467500", "110417.467500", "110418.467500", "110419.467500", "110420.467500", "110421.467500", "110422.467500", "110423.467500", "110424.467500", "110425.467500", "110426.467500", "110427.467500", "110428.467500", "110429.467500", "110430.467500", "110431.467500", "110432.467500", "110433.467500", "110434.467500", "110435.467500", "110436.467500", "110437.467500", "110438.467500", "110439.467500", "110440.467500", "110441.467500", "110442.467500", "110443.467500", "110444.467500", "110445.467500", "110446.467500", "110447.467500", "110448.467500", "110449.467500", "110450.467500", "110451.467500", "110452.467500", "110453.467500", "110454.467500", "110455.467500", "110456.467500", "110457.467500", "110458.467500", "110459.467500", "110500.467500", "110501.467500", "110502.467500", "110503.467500", "110504.467500", "110505.467500", "110506.467500", "110507.467500", "110508.467500", "110509.467500", "110510.467500", "110511.467500", "110512.467500", "110513.467500", "110514.467500", "110515.467500", "110516.467500", "110517.467500", "110518.467500", "110519.467500", "110520.467500", "110521.467500", "110522.467500", "110523.467500", "110524.467500", "110525.467500", "110526.467500", "110527.467500", "110528.467500", "110529.467500", "110530.467500", "110531.467500", "110532.467500", "110533.467500", "110534.467500", "110535.467500", "110536.467500", "110537.467500", "110538.467500", "110539.467500", "110540.467500", "110541.467500", "110542.467500", "110543.467500", "110544.467500", "110545.467500", "110546.467500", "110547.467500", "110548.467500", "110549.467500", "110550.467500", "110551.467500", "110552.467500", "110553.467500", "110554.467500", "110555.467500", "110556.467500", "110557.467500", "110558.467500", "110559.467500", "110600.467500", "110601.467500", "110602.467500", "110603.467500", "110604.467500", "110605.467500", "110606.467500", "110607.467500", "110608.467500", "110609.467500", "110610.467500", "110611.467500", "110612.467500", "110613.467500", "110614.467500", "110615.467500", "110616.467500", "110617.467500", "110618.467500", "110619.467500", "110620.467500", "110621.467500", "110622.467500", "110623.467500", "110624.467500", "110625.467500", "110626.467500", "110627.467500", "110628.467500", "110629.467500", "110630.467500", "110631.467500", "110632.467500", "110633.467500", "110634.467500", "110635.467500", "110636.467500", "110637.467500", "110638.467500", "110639.467500", "110640.467500", "110641.467500", "110642.467500", "110643.467500", "110644.467500", "110645.467500", "110646.467500", "110647.467500", "110648.467500", "110649.467500", "110650.467500", "110651.467500", "110652.467500", "110653.467500", "110654.467500", "110655.467500", "110656.467500", "110657.467500", "110658.467500", "110659.467500", "110700.467500", "110701.467500", "110702.467500", "110703.467500", "110704.467500", "110705.467500", "110706.467500", "110707.467500", "110708.467500", "110709.467500", "110710.467500", "110711.467500", "110712.467500", "110713.467500", "110714.467500", "110715.467500", "110716.467500", "110717.467500", "110718.467500", "110719.467500", "110720.467500", "110721.467500", "110722.467500", "110723.467500", "110724.467500", "110725.467500", "110726.467500", "110727.467500", "110728.467500", "110729.467500", "110730.467500", "110731.467500", "110732.467500", "110733.467500", "110734.467500", "110735.467500", "110736.467500", "110737.467500", "110738.467500", "110739.467500", "110740.467500", "110741.467500", "110742.467500", "110743.467500", "110744.467500", "110745.467500", "110746.467500", "110747.467500", "110748.467500", "110749.467500", "110750.467500", "110751.467500", "110752.467500", "110753.467500", "110754.467500", "110755.467500", "110756.467500", "110757.467500", "110758.467500", "110759.467500", "110800.467500", "110801.467500", "110802.467500", "110803.467500", "110804.467500", "110805.467500", "110806.467500", "110807.467500", "110808.467500", "110809.467500", "110810.467500", "110811.467500", "110812.467500", "110813.467500", "110814.467500", "110815.467500", "110816.467500", "110817.467500", "110818.467500", "110819.467500", "110820.467500", "110821.467500", "110822.467500", "110823.467500", "110824.467500", "110825.467500", "110826.467500", "110827.467500", "110828.467500", "110829.467500", "110830.467500", "110831.467500", "110832.467500", "110833.467500", "110834.467500", "110835.467500", "110836.467500", "110837.467500"],
      "ContentTime": ["110521.962000", "110521.966000", "110521.969000", "110521.972000", "110521.978000", "110521.981000", "110521.984000", "110521.987000", "110521.990000", "110521.993000", "110521.996000", "110522.000000", "110522.003000", "110522.014000", "110522.017000", "110522.020000", "110522.023000", "110522.026000", "110522.029000", "110522.032000", "110522.035000", "110522.038000", "110522.041000", "110522.044000", "110522.047000", "110522.055000", "110522.058000", "110541.936000", "110541.940000", "110541.951000", "110541.954000", "110541.957000", "110541.960000", "110541.963000", "110541.966000", "110541.969000", "110541.973000", "110541.975000", "110541.978000", "110541.981000", "110541.984000", "110541.987000", "110541.990000", "110541.993000", "110541.996000", "110542.000000", "110542.003000", "110542.006000", "110542.009000", "110542.012000", "110542.015000", "110542.018000", "110542.021000", "110542.024000", "110542.027000", "110601.936000", "110601.939000", "110601.942000", "110601.945000", "110601.948000", "110601.951000", "110601.954000", "110601.957000", "110601.960000", "110601.963000", "110601.966000", "110601.969000", "110601.972000", "110601.975000", "110601.978000", "110601.981000", "110601.984000", "110601.987000", "110601.990000", "110601.993000", "110601.996000", "110602.000000", "110602.003000", "110602.006000", "110602.009000", "110602.012000", "110602.015000", "110602.018000", "110621.936000", "110621.939000", "110621.942000", "110621.946000", "110621.949000", "110621.952000", "110621.955000", "110621.958000", "110621.961000", "110621.964000", "110621.967000", "110621.970000", "110621.973000", "110621.976000", "110621.979000", "110621.982000", "110621.985000", "110621.988000", "110621.991000", "110621.994000", "110621.997000", "110622.006000", "110622.009000", "110622.012000", "110622.015000", "110622.018000", "110622.021000", "110622.024000", "110622.027000", "110641.936000", "110641.939000", "110641.942000", "110641.945000", "110641.948000", "110641.951000", "110641.954000", "110641.957000", "110641.960000", "110641.963000", "110641.966000", "110641.984000", "110641.987000", "110641.990000", "110641.993000", "110641.996000", "110642.000000", "110642.003000", "110642.006000", "110642.009000", "110642.012000", "110642.015000", "110642.018000", "110642.021000", "110642.024000", "110642.027000", "110642.030000", "110642.033000", "110701.936000", "110701.939000", "110701.942000", "110701.945000", "110701.948000", "110701.951000", "110701.954000", "110701.957000", "110701.960000", "110701.963000", "110701.967000", "110701.970000", "110701.973000", "110701.975000", "110701.979000", "110701.981000", "110701.984000", "110701.987000", "110701.990000", "110701.993000", "110701.996000", "110702.000000", "110702.004000", "110702.007000", "110702.010000", "110702.013000", "110721.936000", "110721.939000", "110721.942000", "110721.945000", "110721.948000", "110721.951000", "110721.954000", "110721.957000", "110721.960000", "110721.964000", "110721.966000", "110721.969000", "110721.973000", "110721.976000", "110721.979000", "110721.982000", "110721.985000", "110721.988000", "110721.991000", "110721.994000", "110741.936000", "110741.939000", "110741.942000", "110741.945000", "110741.948000", "110741.951000", "110741.954000", "110741.957000", "110741.960000", "110741.963000", "110741.966000", "110741.969000", "110741.973000", "110741.976000", "110741.978000", "110741.994000", "110741.997000", "110742.001000", "110742.004000", "110742.007000", "110801.936000", "110801.939000", "110801.942000", "110801.945000", "110801.948000", "110801.951000", "110801.955000", "110801.957000", "110801.961000", "110801.964000", "110801.967000", "110801.970000", "110801.973000", "110801.976000", "110801.979000", "110801.982000", "110801.985000", "110801.988000", "110801.991000", "110801.994000", "110821.936000", "110821.939000", "110821.942000", "110821.945000", "110821.948000", "110821.951000", "110821.954000", "110821.957000", "110821.960000", "110821.963000", "110821.966000", "110821.969000", "110821.973000", "110821.975000", "110821.978000", "110821.981000", "110821.984000", "110821.987000", "110821.990000", "110821.993000", "110839.064000", "110839.068000", "110839.071000", "110839.074000", "110839.077000", "110839.080000", "110839.083000", "110839.086000", "110839.089000", "110839.093000", "110839.096000", "110839.098000", "110839.102000", "110839.105000", "110839.108000", "110839.111000", "110839.114000", "110839.117000"],
      "InstanceCreationTime": ["110521.962000", "110521.966000", "110521.969000", "110521.972000", "110521.978000", "110521.981000", "110521.984000", "110521.987000", "110521.990000", "110521.993000", "110521.996000", "110522.000000", "110522.003000", "110522.014000", "110522.017000", "110522.020000", "110522.023000", "110522.026000", "110522.029000", "110522.032000", "110522.035000", "110522.038000", "110522.041000", "110522.044000", "110522.047000", "110522.055000", "110522.058000", "110541.936000", "110541.940000", "110541.951000", "110541.954000", "110541.957000", "110541.960000", "110541.963000", "110541.966000", "110541.969000", "110541.973000", "110541.975000", "110541.978000", "110541.981000", "110541.984000", "110541.987000", "110541.990000", "110541.993000", "110541.996000", "110542.000000", "110542.003000", "110542.006000", "110542.009000", "110542.012000", "110542.015000", "110542.018000", "110542.021000", "110542.024000", "110542.027000", "110601.936000", "110601.939000", "110601.942000", "110601.945000", "110601.948000", "110601.951000", "110601.954000", "110601.957000", "110601.960000", "110601.963000", "110601.966000", "110601.969000", "110601.972000", "110601.975000", "110601.978000", "110601.981000", "110601.984000", "110601.987000", "110601.990000", "110601.993000", "110601.996000", "110602.000000", "110602.003000", "110602.006000", "110602.009000", "110602.012000", "110602.015000", "110602.018000", "110621.936000", "110621.939000", "110621.942000", "110621.946000", "110621.949000", "110621.952000", "110621.955000", "110621.958000", "110621.961000", "110621.964000", "110621.967000", "110621.970000", "110621.973000", "110621.976000", "110621.979000", "110621.982000", "110621.985000", "110621.988000", "110621.991000", "110621.994000", "110621.997000", "110622.006000", "110622.009000", "110622.012000", "110622.015000", "110622.018000", "110622.021000", "110622.024000", "110622.027000", "110641.936000", "110641.939000", "110641.942000", "110641.945000", "110641.948000", "110641.951000", "110641.954000", "110641.957000", "110641.960000", "110641.963000", "110641.966000", "110641.984000", "110641.987000", "110641.990000", "110641.993000", "110641.996000", "110642.000000", "110642.003000", "110642.006000", "110642.009000", "110642.012000", "110642.015000", "110642.018000", "110642.021000", "110642.024000", "110642.027000", "110642.030000", "110642.033000", "110701.936000", "110701.939000", "110701.942000", "110701.945000", "110701.948000", "110701.951000", "110701.954000", "110701.957000", "110701.960000", "110701.963000", "110701.967000", "110701.970000", "110701.973000", "110701.975000", "110701.979000", "110701.981000", "110701.984000", "110701.987000", "110701.990000", "110701.993000", "110701.996000", "110702.000000", "110702.004000", "110702.007000", "110702.010000", "110702.013000", "110721.936000", "110721.939000", "110721.942000", "110721.945000", "110721.948000", "110721.951000", "110721.954000", "110721.957000", "110721.960000", "110721.964000", "110721.966000", "110721.969000", "110721.973000", "110721.976000", "110721.979000", "110721.982000", "110721.985000", "110721.988000", "110721.991000", "110721.994000", "110741.936000", "110741.939000", "110741.942000", "110741.945000", "110741.948000", "110741.951000", "110741.954000", "110741.957000", "110741.960000", "110741.963000", "110741.966000", "110741.969000", "110741.973000", "110741.976000", "110741.978000", "110741.994000", "110741.997000", "110742.001000", "110742.004000", "110742.007000", "110801.936000", "110801.939000", "110801.942000", "110801.945000", "110801.948000", "110801.951000", "110801.955000", "110801.957000", "110801.961000", "110801.964000", "110801.967000", "110801.970000", "110801.973000", "110801.976000", "110801.979000", "110801.982000", "110801.985000", "110801.988000", "110801.991000", "110801.994000", "110821.936000", "110821.939000", "110821.942000", "110821.945000", "110821.948000", "110821.951000", "110821.954000", "110821.957000", "110821.960000", "110821.963000", "110821.966000", "110821.969000", "110821.973000", "110821.975000", "110821.978000", "110821.981000", "110821.984000", "110821.987000", "110821.990000", "110821.993000", "110839.064000", "110839.068000", "110839.071000", "110839.074000", "110839.077000", "110839.080000", "110839.083000", "110839.086000", "110839.089000", "110839.093000", "110839.096000", "110839.098000", "110839.102000", "110839.105000", "110839.108000", "110839.111000", "110839.114000", "110839.117000"],
      "InstanceNumber": [1, 2, 3, 4, 5, 6, 7, 8, 9, 10, 11, 12, 13, 14, 15, 16, 17, 18, 19, 20, 21, 22, 23, 24, 25, 26, 27, 28, 29, 30, 31, 32, 33, 34, 35, 36, 37, 38, 39, 40, 41, 42, 43, 44, 45, 46, 47, 48, 49, 50, 51, 52, 53, 54, 55, 56, 57, 58, 59, 60, 61, 62, 63, 64, 65, 66, 67, 68, 69, 70, 71, 72, 73, 74, 75, 76, 77, 78, 79, 80, 81, 82, 83, 84, 85, 86, 87, 88, 89, 90, 91, 92, 93, 94, 95, 96, 97, 98, 99, 100, 101, 102, 103, 104, 105, 106, 107, 108, 109, 110, 111, 112, 113, 114, 115, 116, 117, 118, 119, 120, 121, 122, 123, 124, 125, 126, 127, 128, 129, 130, 131, 132, 133, 134, 135, 136, 137, 138, 139, 140, 141, 142, 143, 144, 145, 146, 147, 148, 149, 150, 151, 152, 153, 154, 155, 156, 157, 158, 159, 160, 161, 162, 163, 164, 165, 166, 167, 168, 169, 170, 171, 172, 173, 174, 175, 176, 177, 178, 179, 180, 181, 182, 183, 184, 185, 186, 187, 188, 189, 190, 191, 192, 193, 194, 195, 196, 197, 198, 199, 200, 201, 202, 203, 204, 205, 206, 207, 208, 209, 210, 211, 212, 213, 214, 215, 216, 217, 218, 219, 220, 221, 222, 223, 224, 225, 226, 227, 228, 229, 230, 231, 232, 233, 234, 235, 236, 237, 238, 239, 240, 241, 242, 243, 244, 245, 246, 247, 248, 249, 250, 251, 252, 253, 254, 255, 256, 257, 258, 259, 260, 261, 262, 263, 264],
      "LargestImagePixelValue": [32723, 31908, 31160, 30798, 30622, 30519, 30870, 30559, 30731, 31045, 30770, 30835, 31082, 30860, 30669, 30622, 30310, 30522, 30872, 30488, 30281, 30354, 30799, 30844, 30788, 31505, 30120, 30596, 31024, 30771, 30665, 30759, 30543, 30529, 30849, 30328, 30988, 30577, 30578, 30576, 30810, 30162, 30744, 30630, 30537, 30529, 30880, 30640, 30358, 30845, 30987, 30699, 30543, 30518, 30346, 30663, 30488, 30505, 30594, 30662, 30555, 30504, 30455, 30355, 30590, 30841, 30578, 32738, 30541, 30938, 30797, 30446, 30016, 30643, 30743, 30674, 30644, 30602, 30727, 30730, 30430, 30687, 30344, 30855, 30629, 30353, 30397, 30610, 30908, 30718, 33748, 30555, 30502, 30558, 30659, 30168, 30311, 30281, 30501, 30430, 30264, 30444, 30384, 30896, 30619, 30402, 31921, 30393, 30604, 30694, 30297, 30620, 30479, 30471, 30385, 30460, 30485, 30854, 30236, 30841, 30342, 30499, 30546, 30567, 30477, 32189, 32434, 33490, 31039, 30868, 30834, 30672, 30610, 30917, 30805, 30758, 30448, 30652, 30673, 30599, 30749, 30679, 30761, 30549, 30638, 30653, 31800, 30537, 30315, 30621, 30625, 30440, 30397, 30722, 30928, 30974, 30644, 30642, 32171, 30626, 30437, 30522, 30664, 30888, 30837, 30479, 30460, 30494, 30647, 30577, 30483, 30688, 30381, 30282, 30388, 32526, 31145, 30600, 30311, 30543, 30761, 30574, 30491, 30223, 30602, 30457, 30680, 30286, 30539, 34225, 31027, 30288, 30319, 30307, 30692, 30621, 30533, 30116, 30357, 30264, 30251, 30287, 30517, 30522, 30462, 30578, 33159, 30461, 30491, 30323, 34859, 30745, 30616, 32636, 30421, 30586, 30310, 30603, 30960, 30688, 31180, 31408, 30790, 30905, 30655, 30349, 29980, 30411, 30441, 31619, 31906, 30609, 30735, 30525, 30540, 30882, 30852, 34753, 30404, 30685, 31129, 30624, 30617, 30408, 30365, 30545, 30642, 30598, 30729, 34212, 30973, 30735, 30478, 30426, 30545, 30767, 30412, 30969, 30818, 30628, 30600, 30400, 30804, 30562],
      "WindowCenter": [9145.0, 9101.0, 9090.0, 9098.0, 9099.0, 9096.0, 9102.0, 9088.0, 9081.0, 9070.0, 9044.0, 9033.0, 9021.0, 9012.0, 9019.0, 9037.0, 9053.0, 9072.0, 9080.0, 9081.0, 9081.0, 9081.0, 9081.0, 9080.0, 9080.0, 9093.0, 9059.0, 9076.0, 9092.0, 9106.0, 9125.0, 9127.0, 9105.0, 9087.0, 9076.0, 9056.0, 9050.0, 9040.0, 9032.0, 9030.0, 9030.0, 9032.0, 9048.0, 9066.0, 9070.0, 9071.0, 9069.0, 9061.0, 9054.0, 9052.0, 9046.0, 9032.0, 9035.0, 9046.0, 9064.0, 9088.0, 9074.0, 9067.0, 9079.0, 9081.0, 9074.0, 9064.0, 9057.0, 9063.0, 9061.0, 9062.0, 9070.0, 9120.0, 9094.0, 9118.0, 9120.0, 9107.0, 9092.0, 9082.0, 9054.0, 9051.0, 9061.0, 9079.0, 9081.0, 9073.0, 9051.0, 9047.0, 9043.0, 9051.0, 9050.0, 9055.0, 9058.0, 9062.0, 9069.0, 9069.0, 9140.0, 9109.0, 9115.0, 9097.0, 9085.0, 9069.0, 9069.0, 9055.0, 9047.0, 9045.0, 9052.0, 9055.0, 9056.0, 9069.0, 9053.0, 9046.0, 9071.0, 9045.0, 9050.0, 9050.0, 9071.0, 9105.0, 9094.0, 9086.0, 9059.0, 9048.0, 9039.0, 9043.0, 9031.0, 9025.0, 8999.0, 9005.0, 9012.0, 9029.0, 9040.0, 9080.0, 9065.0, 9092.0, 9050.0, 9037.0, 9042.0, 9044.0, 9045.0, 9059.0, 9046.0, 9043.0, 9042.0, 9051.0, 9060.0, 9069.0, 9072.0, 9073.0, 9059.0, 9042.0, 9034.0, 9034.0, 9052.0, 9061.0, 9079.0, 9092.0, 9100.0, 9095.0, 9095.0, 9082.0, 9079.0, 9076.0, 9070.0, 9071.0, 9097.0, 9061.0, 9046.0, 9044.0, 9043.0, 9057.0, 9052.0, 9045.0, 9046.0, 9045.0, 9034.0, 9035.0, 9047.0, 9063.0, 9057.0, 9064.0, 9072.0, 9128.0, 9106.0, 9110.0, 9106.0, 9107.0, 9107.0, 9097.0, 9081.0, 9059.0, 9066.0, 9058.0, 9073.0, 9074.0, 9084.0, 9156.0, 9106.0, 9101.0, 9111.0, 9115.0, 9115.0, 9096.0, 9077.0, 9063.0, 9067.0, 9059.0, 9045.0, 9045.0, 9054.0, 9072.0, 9091.0, 9092.0, 9121.0, 9059.0, 9040.0, 9029.0, 9091.0, 9031.0, 9032.0, 9072.0, 9038.0, 9053.0, 9046.0, 9051.0, 9059.0, 9058.0, 9067.0, 9075.0, 9063.0, 9070.0, 9058.0, 9041.0, 9036.0, 9031.0, 9026.0, 9052.0, 9058.0, 9052.0, 9072.0, 9067.0, 9064.0, 9078.0, 9074.0, 9153.0, 9086.0, 9097.0, 9095.0, 9077.0, 9063.0, 9055.0, 9049.0, 9028.0, 9040.0, 9051.0, 9064.0, 9139.0, 9080.0, 9058.0, 9034.0, 9031.0, 9028.0, 9031.0, 9025.0, 9039.0, 9041.0, 9036.0, 9044.0, 9038.0, 9043.0, 9036.0],
      "WindowWidth": [19472.0, 19354.0, 19330.0, 19339.0, 19340.0, 19337.0, 19344.0, 19322.0, 19297.0, 19268.0, 19216.0, 19193.0, 19163.0, 19147.0, 19159.0, 19201.0, 19242.0, 19283.0, 19302.0, 19303.0, 19304.0, 19302.0, 19304.0, 19300.0, 19301.0, 19324.0, 19266.0, 19291.0, 19318.0, 19355.0, 19396.0, 19402.0, 19362.0, 19323.0, 19294.0, 19250.0, 19231.0, 19207.0, 19191.0, 19183.0, 19185.0, 19196.0, 19224.0, 19264.0, 19275.0, 19279.0, 19270.0, 19256.0, 19244.0, 19237.0, 19215.0, 19192.0, 19203.0, 19227.0, 19268.0, 19317.0, 19292.0, 19277.0, 19297.0, 19304.0, 19291.0, 19269.0, 19256.0, 19265.0, 19259.0, 19261.0, 19280.0, 19373.0, 19334.0, 19384.0, 19390.0, 19367.0, 19340.0, 19299.0, 19239.0, 19230.0, 19253.0, 19294.0, 19301.0, 19287.0, 19244.0, 19230.0, 19218.0, 19234.0, 19234.0, 19250.0, 19260.0, 19258.0, 19272.0, 19274.0, 19404.0, 19363.0, 19382.0, 19342.0, 19317.0, 19284.0, 19285.0, 19245.0, 19228.0, 19223.0, 19236.0, 19246.0, 19248.0, 19273.0, 19239.0, 19229.0, 19271.0, 19227.0, 19238.0, 19235.0, 19285.0, 19351.0, 19336.0, 19321.0, 19261.0, 19237.0, 19219.0, 19223.0, 19208.0, 19183.0, 19129.0, 19141.0, 19150.0, 19186.0, 19211.0, 19281.0, 19244.0, 19295.0, 19231.0, 19210.0, 19215.0, 19222.0, 19227.0, 19250.0, 19231.0, 19218.0, 19215.0, 19236.0, 19257.0, 19272.0, 19284.0, 19289.0, 19265.0, 19231.0, 19198.0, 19203.0, 19231.0, 19261.0, 19295.0, 19327.0, 19345.0, 19341.0, 19341.0, 19304.0, 19295.0, 19282.0, 19272.0, 19276.0, 19321.0, 19254.0, 19223.0, 19224.0, 19216.0, 19244.0, 19239.0, 19226.0, 19227.0, 19229.0, 19198.0, 19203.0, 19237.0, 19270.0, 19256.0, 19268.0, 19282.0, 19384.0, 19352.0, 19362.0, 19360.0, 19365.0, 19365.0, 19343.0, 19314.0, 19270.0, 19268.0, 19257.0, 19288.0, 19288.0, 19310.0, 19436.0, 19350.0, 19346.0, 19366.0, 19379.0, 19378.0, 19336.0, 19294.0, 19273.0, 19277.0, 19263.0, 19222.0, 19220.0, 19242.0, 19281.0, 19326.0, 19326.0, 19368.0, 19256.0, 19217.0, 19189.0, 19277.0, 19185.0, 19191.0, 19259.0, 19211.0, 19243.0, 19230.0, 19230.0, 19250.0, 19245.0, 19262.0, 19282.0, 19260.0, 19273.0, 19254.0, 19220.0, 19219.0, 19200.0, 19181.0, 19226.0, 19233.0, 19236.0, 19284.0, 19275.0, 19264.0, 19291.0, 19286.0, 19423.0, 19315.0, 19342.0, 19333.0, 19295.0, 19268.0, 19252.0, 19229.0, 19181.0, 19203.0, 19230.0, 19263.0, 19398.0, 19296.0, 19249.0, 19206.0, 19197.0, 19187.0, 19183.0, 19175.0, 19201.0, 19207.0, 19201.0, 19218.0, 19210.0, 19213.0, 19201.0]
    },
    "slices": {}
  },
  "NumberOfVolumes": 264
}