{
  "AcquisitionMatrixPE": 104,
  "AcquisitionNumber": 1,
  "AcquisitionTime": "10:54:23.445000",
  "BandwidthPerPixelPhaseEncode": 16.578,
  "BaseResolution": 104,
  "BodyPartExamined": "BRAIN",
  "ConsistencyInfo": "N4_VE11C_LATEST_20160120",
  "ConversionSoftware": "dcm2niix",
  "ConversionSoftwareVersion": "v1.0.20190410  GCC6.3.0",
  "DerivedVendorReportedEchoSpacing": 0.000580009,
  "DeviceSerialNumber": "166018",
  "DwellTime": 2.1e-06,
  "EchoTime": 0.037,
  "EchoTrainLength": 104,
  "EffectiveEchoSpacing": 0.000580009,
  "FlipAngle": 68,
  "ImageComments": "Unaliased_MB6_PE3_LB",
  "ImageOrientationPatientDICOM": [0.998853, -0.0388923, 0.0279193, 0.0430869, 0.984487, -0.170083],
  "ImageType": [
    "ORIGINAL",
    "PRIMARY",
    "M",
    "MB",
    "ND",
    "MOSAIC"
],
  "ImagingFrequency": 123.191,
  "InPlanePhaseEncodingDirectionDICOM": "COL",
  "InstitutionAddress": "Washington_Place_6_NYC_NYC_US_10003",
  "InstitutionName": "NYU_-_CBI",
  "InstitutionalDepartmentName": "Department",
  "MRAcquisitionType": "2D",
  "MagneticFieldStrength": 3,
  "Manufacturer": "Siemens",
  "ManufacturersModelName": "Prisma",
  "Modality": "MR",
  "MultibandAccelerationFactor": 6,
  "PartialFourier": 1,
  "PatientPosition": "HFS",
  "PercentPhaseFOV": 100,
  "PhaseEncodingDirection": "j",
  "PhaseEncodingSteps": 104,
  "PhaseResolution": 1,
  "PixelBandwidth": 2290,
  "ProcedureStepDescription": "Investigators_Winawer",
  "ProtocolName": "task-sfprescaled_cmrr_mbepi_s6_2mm_66sl_PA_TR1.0",
  "PulseSequenceDetails": "%CustomerSeq%_cmrr_mbep2d_bold",
  "ReceiveCoilActiveElements": "HC1-7",
  "ReceiveCoilName": "HeadNeck_64",
  "ReconMatrixPE": 104,
  "RepetitionTime": 1,
  "SAR": 0.0728078,
  "ScanOptions": "FS",
  "ScanningSequence": "EP",
  "SequenceName": "epfid2d1_104",
  "SequenceVariant": "SK_SS",
  "SeriesDescription": "task-sfprescaled_cmrr_mbepi_s6_2mm_66sl_PA_TR1.0",
  "SeriesNumber": 12,
  "ShimSetting": [252, -12611, -8531, 327, -46, -7, 35, 0],
  "SliceThickness": 2,
  "SliceTiming": [0, 0.535, 0.09, 0.625, 0.18, 0.715, 0.2675, 0.8025, 0.3575, 0.8925, 0.4475, 0, 0.535, 0.09, 0.625, 0.18, 0.715, 0.2675, 0.8025, 0.3575, 0.8925, 0.4475, 0, 0.535, 0.09, 0.625, 0.18, 0.715, 0.2675, 0.8025, 0.3575, 0.8925, 0.4475, 0, 0.535, 0.09, 0.625, 0.18, 0.715, 0.2675, 0.8025, 0.3575, 0.8925, 0.4475, 0, 0.535, 0.09, 0.625, 0.18, 0.715, 0.2675, 0.8025, 0.3575, 0.8925, 0.4475, 0, 0.535, 0.09, 0.625, 0.18, 0.715, 0.2675, 0.8025, 0.3575, 0.8925, 0.4475],
  "SoftwareVersions": "syngo_MR_E11",
  "SpacingBetweenSlices": 2,
  "StationName": "AWP166018",
  "TaskName": "sfprescaled",
  "TotalReadoutTime": 0.0597409,
  "TxRefAmp": 216.634,
  "WipMemBlock": "0147bbda-03b7-44ae-b501-601ec328b3ca||Sequence: R016 ve11c/master r/8780670; Nov 27 2017 15:05:12 by eja",
  "dcmmeta_affine": [
    [-1.9977065324783325, 0.0861738920211792, 0.04174263775348663, 103.73658752441406],
    [0.07778450101613998, 1.9689745903015137, -0.34218233823776245, -73.6180648803711],
    [0.0558386854827404, 0.34016647934913635, 1.970068335533142, -67.41401672363281],
    [0.0, 0.0, 0.0, 1.0]
],
  "dcmmeta_reorient_transform": [
    [0.0, -1.0, 0.0, 103.0],
    [1.0, 0.0, 0.0, 0.0],
    [0.0, 0.0, 1.0, 0.0],
    [0.0, 0.0, 0.0, 1.0]
],
  "dcmmeta_shape": [104, 104, 66, 264],
  "dcmmeta_slice_dim": 2,
  "dcmmeta_version": 0.6,
  "global": {
    "const": {
      "AccessionNumber": "k5odmn64",
      "AcquisitionMatrix": [104, 0, 0, 104],
      "AngioFlag": "N",
      "BitsAllocated": 16,
      "BitsStored": 16,
      "BodyPartExamined": "BRAIN",
      "Columns": 936,
      "EchoNumbers": 1,
      "EchoTime": 37.0,
      "EchoTrainLength": 104,
      "FlipAngle": 68.0,
      "HighBit": 15,
      "ImageOrientationPatient": [0.99885329406993, -0.0388922510526, 0.02791934336097, 0.04308694691435, 0.98448728111066, -0.1700832394357],
      "ImagePositionPatient": [-979.50677938651, -915.92138287249, 85.903491900522],
      "ImageType": [
        "ORIGINAL",
        "PRIMARY",
        "M",
        "MB",
        "ND",
        "MOSAIC"
],
      "ImagedNucleus": "1H",
      "ImagingFrequency": 123.190755,
      "InPlanePhaseEncodingDirection": "COL",
      "MRAcquisitionType": "2D",
      "MagneticFieldStrength": 3.0,
      "Manufacturer": "SIEMENS",
      "ManufacturerModelName": "Prisma",
      "Modality": "MR",
      "NumberOfAverages": 1.0,
      "NumberOfPhaseEncodingSteps": 104,
      "PercentPhaseFieldOfView": 100.0,
      "PercentSampling": 100.0,
      "PerformedProcedureStepStartTime": "103156.857000",
      "PhotometricInterpretation": "MONOCHROME2",
      "PixelBandwidth": 2290.0,
      "PixelRepresentation": 0,
      "PixelSpacing": [2.0, 2.0],
      "ProtocolName": "task-sfprescaled_cmrr_mbepi_s6_2mm_66sl_PA_TR1.0",
      "RepetitionTime": 1000.0,
      "Rows": 936,
      "SAR": 0.07280780157127,
      "SamplesPerPixel": 1,
      "ScanOptions": "FS",
      "ScanningSequence": "EP",
      "SequenceName": "epfid2d1_104",
      "SequenceVariant": [
        "SK",
        "SS"
],
      "SeriesDescription": "task-sfprescaled_cmrr_mbepi_s6_2mm_66sl_PA_TR1.0",
      "SeriesNumber": 12,
      "SeriesTime": "105541.803000",
      "SliceLocation": -51.644587110569,
      "SliceThickness": 2.0,
      "SmallestImagePixelValue": 0,
      "SoftwareVersions": "syngo MR E11",
      "SpacingBetweenSlices": 2.0000000771805,
      "SpecificCharacterSet": "ISO_IR 100",
      "StudyID": "1",
      "StudyTime": "103156.795000",
      "TransmitCoilName": "Body",
      "VariableFlipAngleFlag": "N",
      "WindowCenterWidthExplanation": "Algo1",
      "dBdt": 0.0},
    "slices": {}
  },
  "time": {
    "samples": {
      "AcquisitionNumber": [1, 2, 3, 4, 5, 6, 7, 8, 9, 10, 11, 12, 13, 14, 15, 16, 17, 18, 19, 20, 21, 22, 23, 24, 25, 26, 27, 28, 29, 30, 31, 32, 33, 34, 35, 36, 37, 38, 39, 40, 41, 42, 43, 44, 45, 46, 47, 48, 49, 50, 51, 52, 53, 54, 55, 56, 57, 58, 59, 60, 61, 62, 63, 64, 65, 66, 67, 68, 69, 70, 71, 72, 73, 74, 75, 76, 77, 78, 79, 80, 81, 82, 83, 84, 85, 86, 87, 88, 89, 90, 91, 92, 93, 94, 95, 96, 97, 98, 99, 100, 101, 102, 103, 104, 105, 106, 107, 108, 109, 110, 111, 112, 113, 114, 115, 116, 117, 118, 119, 120, 121, 122, 123, 124, 125, 126, 127, 128, 129, 130, 131, 132, 133, 134, 135, 136, 137, 138, 139, 140, 141, 142, 143, 144, 145, 146, 147, 148, 149, 150, 151, 152, 153, 154, 155, 156, 157, 158, 159, 160, 161, 162, 163, 164, 165, 166, 167, 168, 169, 170, 171, 172, 173, 174, 175, 176, 177, 178, 179, 180, 181, 182, 183, 184, 185, 186, 187, 188, 189, 190, 191, 192, 193, 194, 195, 196, 197, 198, 199, 200, 201, 202, 203, 204, 205, 206, 207, 208, 209, 210, 211, 212, 213, 214, 215, 216, 217, 218, 219, 220, 221, 222, 223, 224, 225, 226, 227, 228, 229, 230, 231, 232, 233, 234, 235, 236, 237, 238, 239, 240, 241, 242, 243, 244, 245, 246, 247, 248, 249, 250, 251, 252, 253, 254, 255, 256, 257, 258, 259, 260, 261, 262, 263, 264],
      "AcquisitionTime": ["105423.445000", "105424.445000", "105425.445000", "105426.445000", "105427.445000", "105428.445000", "105429.445000", "105430.445000", "105431.445000", "105432.445000", "105433.445000", "105434.445000", "105435.445000", "105436.445000", "105437.445000", "105438.445000", "105439.445000", "105440.445000", "105441.445000", "105442.445000", "105443.445000", "105444.445000", "105445.445000", "105446.445000", "105447.445000", "105448.445000", "105449.445000", "105450.445000", "105451.445000", "105452.445000", "105453.445000", "105454.445000", "105455.445000", "105456.445000", "105457.445000", "105458.445000", "105459.445000", "105500.445000", "105501.445000", "105502.445000", "105503.445000", "105504.445000", "105505.445000", "105506.445000", "105507.445000", "105508.445000", "105509.445000", "105510.445000", "105511.445000", "105512.445000", "105513.445000", "105514.445000", "105515.445000", "105516.445000", "105517.445000", "105518.445000", "105519.445000", "105520.445000", "105521.445000", "105522.445000", "105523.445000", "105524.445000", "105525.445000", "105526.445000", "105527.445000", "105528.445000", "105529.445000", "105530.445000", "105531.445000", "105532.445000", "105533.445000", "105534.445000", "105535.445000", "105536.445000", "105537.445000", "105538.445000", "105539.445000", "105540.445000", "105541.445000", "105542.445000", "105543.445000", "105544.445000", "105545.445000", "105546.445000", "105547.445000", "105548.445000", "105549.445000", "105550.445000", "105551.445000", "105552.445000", "105553.445000", "105554.445000", "105555.445000", "105556.445000", "105557.445000", "105558.445000", "105559.445000", "105600.445000", "105601.445000", "105602.445000", "105603.445000", "105604.445000", "105605.445000", "105606.445000", "105607.445000", "105608.445000", "105609.445000", "105610.445000", "105611.445000", "105612.445000", "105613.445000", "105614.445000", "105615.445000", "105616.445000", "105617.445000", "105618.445000", "105619.445000", "105620.445000", "105621.445000", "105622.445000", "105623.445000", "105624.445000", "105625.445000", "105626.445000", "105627.445000", "105628.445000", "105629.445000", "105630.445000", "105631.445000", "105632.445000", "105633.445000", "105634.445000", "105635.445000", "105636.445000", "105637.445000", "105638.445000", "105639.445000", "105640.445000", "105641.445000", "105642.445000", "105643.445000", "105644.445000", "105645.445000", "105646.445000", "105647.445000", "105648.445000", "105649.445000", "105650.445000", "105651.445000", "105652.445000", "105653.445000", "105654.445000", "105655.445000", "105656.445000", "105657.445000", "105658.445000", "105659.445000", "105700.445000", "105701.445000", "105702.445000", "105703.445000", "105704.445000", "105705.445000", "105706.445000", "105707.445000", "105708.445000", "105709.445000", "105710.445000", "105711.445000", "105712.445000", "105713.445000", "105714.445000", "105715.445000", "105716.445000", "105717.445000", "105718.445000", "105719.445000", "105720.445000", "105721.445000", "105722.445000", "105723.445000", "105724.445000", "105725.445000", "105726.445000", "105727.445000", "105728.445000", "105729.445000", "105730.445000", "105731.445000", "105732.445000", "105733.445000", "105734.445000", "105735.445000", "105736.445000", "105737.445000", "105738.445000", "105739.445000", "105740.445000", "105741.445000", "105742.445000", "105743.445000", "105744.445000", "105745.445000", "105746.445000", "105747.445000", "105748.445000", "105749.445000", "105750.445000", "105751.445000", "105752.445000", "105753.445000", "105754.445000", "105755.445000", "105756.445000", "105757.445000", "105758.445000", "105759.445000", "105800.445000", "105801.445000", "105802.445000", "105803.445000", "105804.445000", "105805.445000", "105806.445000", "105807.445000", "105808.445000", "105809.445000", "105810.445000", "105811.445000", "105812.445000", "105813.445000", "105814.445000", "105815.445000", "105816.445000", "105817.445000", "105818.445000", "105819.445000", "105820.445000", "105821.445000", "105822.445000", "105823.445000", "105824.445000", "105825.445000", "105826.445000", "105827.445000", "105828.445000", "105829.445000", "105830.445000", "105831.445000", "105832.445000", "105833.445000", "105834.445000", "105835.445000", "105836.445000", "105837.445000", "105838.445000", "105839.445000", "105840.445000", "105841.445000", "105842.445000", "105843.445000", "105844.445000", "105845.445000", "105846.445000"],
      "ContentTime": ["105541.806000", "105541.809000", "105541.812000", "105541.815000", "105541.818000", "105541.821000", "105541.824000", "105541.827000", "105541.830000", "105541.833000", "105541.842000", "105541.845000", "105541.848000", "105541.851000", "105541.854000", "105541.857000", "105541.860000", "105541.863000", "105541.866000", "105541.869000", "105541.872000", "105541.875000", "105541.878000", "105541.881000", "105541.884000", "105541.889000", "105541.892000", "105541.895000", "105541.898000", "105541.901000", "105541.904000", "105541.907000", "105541.910000", "105541.913000", "105541.916000", "105541.919000", "105541.922000", "105541.925000", "105601.776000", "105601.779000", "105601.782000", "105601.785000", "105601.788000", "105601.791000", "105601.794000", "105601.797000", "105601.807000", "105601.810000", "105601.813000", "105601.815000", "105601.819000", "105601.822000", "105601.825000", "105601.828000", "105601.831000", "105601.834000", "105601.837000", "105601.839000", "105601.843000", "105601.846000", "105601.848000", "105601.851000", "105601.855000", "105601.858000", "105601.860000", "105601.863000", "105621.776000", "105621.779000", "105621.782000", "105621.785000", "105621.788000", "105621.791000", "105621.794000", "105621.797000", "105621.800000", "105621.803000", "105621.806000", "105621.809000", "105621.821000", "105621.824000", "105621.827000", "105621.830000", "105621.833000", "105621.836000", "105621.839000", "105621.842000", "105621.845000", "105621.848000", "105621.851000", "105621.854000", "105621.857000", "105621.860000", "105621.863000", "105621.866000", "105641.776000", "105641.779000", "105641.782000", "105641.785000", "105641.788000", "105641.791000", "105641.794000", "105641.797000", "105641.800000", "105641.803000", "105641.806000", "105641.809000", "105641.812000", "105641.815000", "105641.818000", "105641.821000", "105641.824000", "105641.827000", "105641.831000", "105641.833000", "105641.836000", "105641.839000", "105641.842000", "105641.845000", "105641.848000", "105641.851000", "105641.855000", "105641.857000", "105641.860000", "105701.789000", "105701.793000", "105701.795000", "105701.798000", "105701.801000", "105701.805000", "105701.808000", "105701.810000", "105701.813000", "105701.816000", "105701.819000", "105701.822000", "105701.825000", "105701.829000", "105701.831000", "105701.834000", "105701.837000", "105701.840000", "105701.843000", "105701.846000", "105701.849000", "105701.852000", "105701.855000", "105701.858000", "105701.861000", "105701.864000", "105701.867000", "105701.870000", "105721.776000", "105721.790000", "105721.792000", "105721.796000", "105721.798000", "105721.801000", "105721.804000", "105721.808000", "105721.810000", "105721.814000", "105721.817000", "105721.820000", "105721.823000", "105721.826000", "105721.829000", "105721.832000", "105721.835000", "105721.838000", "105721.841000", "105721.844000", "105721.847000", "105721.850000", "105721.853000", "105721.856000", "105721.859000", "105721.862000", "105721.865000", "105741.776000", "105741.779000", "105741.782000", "105741.785000", "105741.788000", "105741.791000", "105741.794000", "105741.797000", "105741.800000", "105741.803000", "105741.806000", "105741.809000", "105741.812000", "105741.815000", "105741.818000", "105741.821000", "105741.824000", "105741.827000", "105741.830000", "105741.833000", "105801.776000", "105801.779000", "105801.794000", "105801.797000", "105801.800000", "105801.803000", "105801.806000", "105801.809000", "105801.812000", "105801.815000", "105801.818000", "105801.821000", "105801.824000", "105801.827000", "105801.830000", "105801.833000", "105801.836000", "105801.839000", "105801.842000", "105801.845000", "105821.776000", "105821.779000", "105821.782000", "105821.785000", "105821.788000", "105821.791000", "105821.794000", "105821.797000", "105821.800000", "105821.803000", "105821.806000", "105821.809000", "105821.813000", "105821.815000", "105821.818000", "105821.821000", "105821.824000", "105821.828000", "105821.830000", "105821.833000", "105841.776000", "105841.779000", "105841.782000", "105841.785000", "105841.788000", "105841.791000", "105841.794000", "105841.797000", "105841.800000", "105841.803000", "105841.806000", "105841.809000", "105841.812000", "105841.815000", "105841.818000", "105841.821000", "105841.824000", "105841.827000", "105841.830000", "105841.833000", "105847.773000", "105847.777000", "105847.780000", "105847.783000", "105847.795000", "105847.798000"],
      "InstanceCreationTime": ["105541.806000", "105541.809000", "105541.812000", "105541.815000", "105541.818000", "105541.821000", "105541.824000", "105541.827000", "105541.830000", "105541.833000", "105541.842000", "105541.845000", "105541.848000", "105541.851000", "105541.854000", "105541.857000", "105541.860000", "105541.863000", "105541.866000", "105541.869000", "105541.872000", "105541.875000", "105541.878000", "105541.881000", "105541.884000", "105541.889000", "105541.892000", "105541.895000", "105541.898000", "105541.901000", "105541.904000", "105541.907000", "105541.910000", "105541.913000", "105541.916000", "105541.919000", "105541.922000", "105541.925000", "105601.776000", "105601.779000", "105601.782000", "105601.785000", "105601.788000", "105601.791000", "105601.794000", "105601.797000", "105601.807000", "105601.810000", "105601.813000", "105601.815000", "105601.819000", "105601.822000", "105601.825000", "105601.828000", "105601.831000", "105601.834000", "105601.837000", "105601.839000", "105601.843000", "105601.846000", "105601.848000", "105601.851000", "105601.855000", "105601.858000", "105601.860000", "105601.863000", "105621.776000", "105621.779000", "105621.782000", "105621.785000", "105621.788000", "105621.791000", "105621.794000", "105621.797000", "105621.800000", "105621.803000", "105621.806000", "105621.809000", "105621.821000", "105621.824000", "105621.827000", "105621.830000", "105621.833000", "105621.836000", "105621.839000", "105621.842000", "105621.845000", "105621.848000", "105621.851000", "105621.854000", "105621.857000", "105621.860000", "105621.863000", "105621.866000", "105641.776000", "105641.779000", "105641.782000", "105641.785000", "105641.788000", "105641.791000", "105641.794000", "105641.797000", "105641.800000", "105641.803000", "105641.806000", "105641.809000", "105641.812000", "105641.815000", "105641.818000", "105641.821000", "105641.824000", "105641.827000", "105641.831000", "105641.833000", "105641.836000", "105641.839000", "105641.842000", "105641.845000", "105641.848000", "105641.851000", "105641.855000", "105641.857000", "105641.860000", "105701.789000", "105701.793000", "105701.795000", "105701.798000", "105701.801000", "105701.805000", "105701.808000", "105701.810000", "105701.813000", "105701.816000", "105701.819000", "105701.822000", "105701.825000", "105701.829000", "105701.831000", "105701.834000", "105701.837000", "105701.840000", "105701.843000", "105701.846000", "105701.849000", "105701.852000", "105701.855000", "105701.858000", "105701.861000", "105701.864000", "105701.867000", "105701.870000", "105721.776000", "105721.790000", "105721.792000", "105721.796000", "105721.798000", "105721.801000", "105721.804000", "105721.808000", "105721.810000", "105721.814000", "105721.817000", "105721.820000", "105721.823000", "105721.826000", "105721.829000", "105721.832000", "105721.835000", "105721.838000", "105721.841000", "105721.844000", "105721.847000", "105721.850000", "105721.853000", "105721.856000", "105721.859000", "105721.862000", "105721.865000", "105741.776000", "105741.779000", "105741.782000", "105741.785000", "105741.788000", "105741.791000", "105741.794000", "105741.797000", "105741.800000", "105741.803000", "105741.806000", "105741.809000", "105741.812000", "105741.815000", "105741.818000", "105741.821000", "105741.824000", "105741.827000", "105741.830000", "105741.833000", "105801.776000", "105801.779000", "105801.794000", "105801.797000", "105801.800000", "105801.803000", "105801.806000", "105801.809000", "105801.812000", "105801.815000", "105801.818000", "105801.821000", "105801.824000", "105801.827000", "105801.830000", "105801.833000", "105801.836000", "105801.839000", "105801.842000", "105801.845000", "105821.776000", "105821.779000", "105821.782000", "105821.785000", "105821.788000", "105821.791000", "105821.794000", "105821.797000", "105821.800000", "105821.803000", "105821.806000", "105821.809000", "105821.813000", "105821.815000", "105821.818000", "105821.821000", "105821.824000", "105821.828000", "105821.830000", "105821.833000", "105841.776000", "105841.779000", "105841.782000", "105841.785000", "105841.788000", "105841.791000", "105841.794000", "105841.797000", "105841.800000", "105841.803000", "105841.806000", "105841.809000", "105841.812000", "105841.815000", "105841.818000", "105841.821000", "105841.824000", "105841.827000", "105841.830000", "105841.833000", "105847.773000", "105847.777000", "105847.780000", "105847.783000", "105847.795000", "105847.798000"],
      "InstanceNumber": [1, 2, 3, 4, 5, 6, 7, 8, 9, 10, 11, 12, 13, 14, 15, 16, 17, 18, 19, 20, 21, 22, 23, 24, 25, 26, 27, 28, 29, 30, 31, 32, 33, 34, 35, 36, 37, 38, 39, 40, 41, 42, 43, 44, 45, 46, 47, 48, 49, 50, 51, 52, 53, 54, 55, 56, 57, 58, 59, 60, 61, 62, 63, 64, 65, 66, 67, 68, 69, 70, 71, 72, 73, 74, 75, 76, 77, 78, 79, 80, 81, 82, 83, 84, 85, 86, 87, 88, 89, 90, 91, 92, 93, 94, 95, 96, 97, 98, 99, 100, 101, 102, 103, 104, 105, 106, 107, 108, 109, 110, 111, 112, 113, 114, 115, 116, 117, 118, 119, 120, 121, 122, 123, 124, 125, 126, 127, 128, 129, 130, 131, 132, 133, 134, 135, 136, 137, 138, 139, 140, 141, 142, 143, 144, 145, 146, 147, 148, 149, 150, 151, 152, 153, 154, 155, 156, 157, 158, 159, 160, 161, 162, 163, 164, 165, 166, 167, 168, 169, 170, 171, 172, 173, 174, 175, 176, 177, 178, 179, 180, 181, 182, 183, 184, 185, 186, 187, 188, 189, 190, 191, 192, 193, 194, 195, 196, 197, 198, 199, 200, 201, 202, 203, 204, 205, 206, 207, 208, 209, 210, 211, 212, 213, 214, 215, 216, 217, 218, 219, 220, 221, 222, 223, 224, 225, 226, 227, 228, 229, 230, 231, 232, 233, 234, 235, 236, 237, 238, 239, 240, 241, 242, 243, 244, 245, 246, 247, 248, 249, 250, 251, 252, 253, 254, 255, 256, 257, 258, 259, 260, 261, 262, 263, 264],
      "LargestImagePixelValue": [32521, 31655, 31024, 30604, 30659, 30746, 30516, 30492, 30229, 30412, 30300, 30355, 30358, 30305, 30399, 30298, 30318, 30495, 30520, 30540, 30184, 30229, 30493, 30386, 30263, 30431, 30445, 30589, 30458, 30301, 30083, 30173, 30436, 30247, 30462, 30393, 30342, 30403, 30337, 30655, 30312, 30462, 30328, 30235, 30231, 30426, 30340, 30510, 30252, 30338, 30726, 30269, 30192, 30510, 30621, 30726, 30467, 30501, 30763, 30626, 30611, 30471, 30302, 30455, 30520, 30528, 30456, 30750, 30492, 30623, 30649, 30578, 30839, 30610, 30398, 30417, 31081, 31120, 30360, 30552, 30577, 30645, 30695, 30546, 30499, 30281, 30663, 30582, 30573, 30522, 30650, 30656, 30739, 30628, 30181, 30489, 30456, 30020, 30650, 30270, 31100, 30669, 30402, 30248, 30728, 30714, 30627, 30414, 30863, 30803, 30571, 30351, 30536, 31127, 30752, 30342, 30247, 30725, 30347, 30466, 30339, 31111, 30617, 30669, 30667, 31040, 31374, 31095, 30915, 31162, 31367, 30958, 30764, 31752, 31397, 31301, 30501, 31256, 31544, 31190, 30534, 31391, 31120, 30758, 30758, 31308, 31172, 31044, 30912, 31209, 31587, 30929, 30771, 30632, 31771, 31489, 31014, 30704, 30640, 30993, 31114, 30796, 30657, 31443, 31143, 31541, 30940, 30969, 31194, 31506, 31466, 31249, 30765, 31492, 31902, 31384, 31176, 31506, 31736, 31293, 31322, 31220, 31268, 31250, 31402, 31216, 31380, 31811, 31459, 31128, 31522, 31422, 31593, 30936, 30998, 31541, 31068, 31234, 30897, 31775, 31720, 31463, 31671, 30915, 31508, 31300, 31253, 30979, 31062, 31682, 31492, 31292, 31415, 31204, 31793, 31660, 31424, 30972, 31291, 31136, 31499, 31005, 31098, 31132, 31423, 31512, 31508, 31552, 31598, 31401, 31479, 31801, 31349, 31507, 31845, 31492, 30996, 31125, 31100, 31041, 31294, 31222, 31511, 31327, 31269, 31329, 31601, 31486, 31216, 31381, 31503, 31725, 31451, 31134, 31426, 31825, 31402, 31625, 31329, 31453, 31374, 31027, 31507, 31302],
      "WindowCenter": [9173.0, 9122.0, 9102.0, 9094.0, 9099.0, 9091.0, 9083.0, 9084.0, 9086.0, 9091.0, 9086.0, 9092.0, 9085.0, 9077.0, 9075.0, 9075.0, 9082.0, 9092.0, 9098.0, 9110.0, 9115.0, 9107.0, 9096.0, 9077.0, 9067.0, 9057.0, 9045.0, 9044.0, 9046.0, 9054.0, 9049.0, 9050.0, 9064.0, 9082.0, 9099.0, 9093.0, 9082.0, 9065.0, 9056.0, 9054.0, 9047.0, 9045.0, 9046.0, 9056.0, 9066.0, 9083.0, 9093.0, 9093.0, 9085.0, 9066.0, 9056.0, 9048.0, 9041.0, 9046.0, 9061.0, 9071.0, 9076.0, 9078.0, 9091.0, 9092.0, 9092.0, 9069.0, 9067.0, 9074.0, 9075.0, 9082.0, 9076.0, 9082.0, 9076.0, 9090.0, 9082.0, 9073.0, 9073.0, 9074.0, 9064.0, 9058.0, 9077.0, 9087.0, 9086.0, 9095.0, 9103.0, 9119.0, 9121.0, 9116.0, 9116.0, 9105.0, 9105.0, 9111.0, 9117.0, 9122.0, 9130.0, 9123.0, 9112.0, 9087.0, 9062.0, 9056.0, 9045.0, 9039.0, 9061.0, 9064.0, 9080.0, 9082.0, 9083.0, 9076.0, 9089.0, 9084.0, 9085.0, 9070.0, 9076.0, 9084.0, 9084.0, 9078.0, 9086.0, 9115.0, 9120.0, 9115.0, 9108.0, 9097.0, 9080.0, 9069.0, 9059.0, 9062.0, 9054.0, 9055.0, 9062.0, 9079.0, 9104.0, 9101.0, 9109.0, 9103.0, 9109.0, 9101.0, 9097.0, 9115.0, 9115.0, 9117.0, 9099.0, 9114.0, 9114.0, 9092.0, 9070.0, 9070.0, 9055.0, 9056.0, 9064.0, 9075.0, 9070.0, 9064.0, 9063.0, 9068.0, 9075.0, 9062.0, 9063.0, 9055.0, 9083.0, 9096.0, 9092.0, 9078.0, 9068.0, 9057.0, 9044.0, 9035.0, 9035.0, 9041.0, 9051.0, 9065.0, 9053.0, 9042.0, 9041.0, 9057.0, 9067.0, 9063.0, 9049.0, 9069.0, 9089.0, 9089.0, 9091.0, 9090.0, 9087.0, 9073.0, 9061.0, 9053.0, 9044.0, 9052.0, 9071.0, 9088.0, 9100.0, 9114.0, 9108.0, 9095.0, 9107.0, 9100.0, 9107.0, 9086.0, 9076.0, 9088.0, 9074.0, 9083.0, 9076.0, 9105.0, 9117.0, 9121.0, 9112.0, 9096.0, 9102.0, 9108.0, 9110.0, 9103.0, 9094.0, 9090.0, 9076.0, 9082.0, 9073.0, 9071.0, 9079.0, 9097.0, 9115.0, 9115.0, 9128.0, 9122.0, 9121.0, 9107.0, 9105.0, 9112.0, 9113.0, 9111.0, 9103.0, 9107.0, 9098.0, 9085.0, 9075.0, 9104.0, 9117.0, 9137.0, 9152.0, 9141.0, 9125.0, 9113.0, 9085.0, 9076.0, 9074.0, 9079.0, 9063.0, 9065.0, 9063.0, 9053.0, 9058.0, 9067.0, 9078.0, 9098.0, 9100.0, 9107.0, 9102.0, 9095.0, 9091.0, 9086.0, 9073.0, 9087.0, 9090.0, 9098.0, 9099.0, 9085.0, 9082.0, 9072.0],
      "WindowWidth": [19541.0, 19412.0, 19359.0, 19336.0, 19343.0, 19324.0, 19305.0, 19307.0, 19312.0, 19321.0, 19313.0, 19324.0, 19312.0, 19296.0, 19290.0, 19287.0, 19301.0, 19325.0, 19334.0, 19361.0, 19375.0, 19363.0, 19335.0, 19297.0, 19272.0, 19251.0, 19225.0, 19221.0, 19226.0, 19245.0, 19238.0, 19239.0, 19263.0, 19304.0, 19337.0, 19327.0, 19302.0, 19267.0, 19249.0, 19241.0, 19227.0, 19223.0, 19225.0, 19248.0, 19273.0, 19307.0, 19328.0, 19330.0, 19314.0, 19273.0, 19248.0, 19232.0, 19220.0, 19226.0, 19253.0, 19279.0, 19295.0, 19299.0, 19321.0, 19326.0, 19326.0, 19276.0, 19268.0, 19282.0, 19285.0, 19301.0, 19289.0, 19300.0, 19292.0, 19314.0, 19301.0, 19282.0, 19284.0, 19287.0, 19264.0, 19253.0, 19286.0, 19309.0, 19317.0, 19335.0, 19352.0, 19380.0, 19389.0, 19383.0, 19383.0, 19354.0, 19354.0, 19366.0, 19374.0, 19392.0, 19408.0, 19395.0, 19367.0, 19316.0, 19265.0, 19244.0, 19218.0, 19210.0, 19251.0, 19262.0, 19296.0, 19302.0, 19306.0, 19293.0, 19315.0, 19308.0, 19311.0, 19285.0, 19292.0, 19311.0, 19307.0, 19299.0, 19313.0, 19367.0, 19384.0, 19380.0, 19366.0, 19337.0, 19303.0, 19278.0, 19253.0, 19256.0, 19241.0, 19245.0, 19259.0, 19295.0, 19344.0, 19348.0, 19361.0, 19349.0, 19359.0, 19346.0, 19342.0, 19372.0, 19368.0, 19376.0, 19348.0, 19362.0, 19360.0, 19322.0, 19280.0, 19268.0, 19241.0, 19246.0, 19265.0, 19278.0, 19273.0, 19264.0, 19259.0, 19263.0, 19275.0, 19253.0, 19257.0, 19243.0, 19293.0, 19325.0, 19321.0, 19297.0, 19277.0, 19253.0, 19216.0, 19197.0, 19202.0, 19210.0, 19234.0, 19254.0, 19242.0, 19214.0, 19210.0, 19242.0, 19264.0, 19258.0, 19233.0, 19265.0, 19302.0, 19313.0, 19320.0, 19316.0, 19305.0, 19279.0, 19250.0, 19239.0, 19215.0, 19231.0, 19273.0, 19311.0, 19338.0, 19361.0, 19352.0, 19332.0, 19349.0, 19335.0, 19346.0, 19308.0, 19287.0, 19305.0, 19282.0, 19303.0, 19290.0, 19345.0, 19375.0, 19384.0, 19364.0, 19334.0, 19342.0, 19353.0, 19359.0, 19346.0, 19326.0, 19312.0, 19284.0, 19296.0, 19276.0, 19270.0, 19286.0, 19325.0, 19365.0, 19374.0, 19398.0, 19389.0, 19383.0, 19361.0, 19355.0, 19366.0, 19370.0, 19364.0, 19346.0, 19351.0, 19329.0, 19309.0, 19283.0, 19340.0, 19371.0, 19417.0, 19442.0, 19427.0, 19394.0, 19369.0, 19302.0, 19283.0, 19282.0, 19289.0, 19251.0, 19261.0, 19256.0, 19233.0, 19238.0, 19258.0, 19287.0, 19334.0, 19338.0, 19347.0, 19341.0, 19335.0, 19319.0, 19294.0, 19276.0, 19304.0, 19311.0, 19330.0, 19331.0, 19306.0, 19295.0, 19274.0]
    },
    "slices": {}
  },
  "NumberOfVolumes": 264
}