{
  "AcquisitionMatrixPE": 104,
  "AcquisitionNumber": 1,
  "AcquisitionTime": "10:59:30.457500",
  "BandwidthPerPixelPhaseEncode": 16.578,
  "BaseResolution": 104,
  "BodyPartExamined": "BRAIN",
  "ConsistencyInfo": "N4_VE11C_LATEST_20160120",
  "ConversionSoftware": "dcm2niix",
  "ConversionSoftwareVersion": "v1.0.20190410  GCC6.3.0",
  "DerivedVendorReportedEchoSpacing": 0.000580009,
  "DeviceSerialNumber": "166018",
  "DwellTime": 2.1e-06,
  "EchoTime": 0.037,
  "EchoTrainLength": 104,
  "EffectiveEchoSpacing": 0.000580009,
  "FlipAngle": 68,
  "ImageComments": "Unaliased_MB6_PE3_LB",
  "ImageOrientationPatientDICOM": [0.998853, -0.0388923, 0.0279193, 0.0430869, 0.984487, -0.170083],
  "ImageType": [
    "ORIGINAL",
    "PRIMARY",
    "M",
    "MB",
    "ND",
    "MOSAIC"
],
  "ImagingFrequency": 123.191,
  "InPlanePhaseEncodingDirectionDICOM": "COL",
  "InstitutionAddress": "Washington_Place_6_NYC_NYC_US_10003",
  "InstitutionName": "NYU_-_CBI",
  "InstitutionalDepartmentName": "Department",
  "MRAcquisitionType": "2D",
  "MagneticFieldStrength": 3,
  "Manufacturer": "Siemens",
  "ManufacturersModelName": "Prisma",
  "Modality": "MR",
  "MultibandAccelerationFactor": 6,
  "PartialFourier": 1,
  "PatientPosition": "HFS",
  "PercentPhaseFOV": 100,
  "PhaseEncodingDirection": "j",
  "PhaseEncodingSteps": 104,
  "PhaseResolution": 1,
  "PixelBandwidth": 2290,
  "ProcedureStepDescription": "Investigators_Winawer",
  "ProtocolName": "task-sfprescaled_cmrr_mbepi_s6_2mm_66sl_PA_TR1.0",
  "PulseSequenceDetails": "%CustomerSeq%_cmrr_mbep2d_bold",
  "ReceiveCoilActiveElements": "HC1-7",
  "ReceiveCoilName": "HeadNeck_64",
  "ReconMatrixPE": 104,
  "RepetitionTime": 1,
  "SAR": 0.0728078,
  "ScanOptions": "FS",
  "ScanningSequence": "EP",
  "SequenceName": "epfid2d1_104",
  "SequenceVariant": "SK_SS",
  "SeriesDescription": "task-sfprescaled_cmrr_mbepi_s6_2mm_66sl_PA_TR1.0",
  "SeriesNumber": 14,
  "ShimSetting": [252, -12611, -8531, 327, -46, -7, 35, 0],
  "SliceThickness": 2,
  "SliceTiming": [0, 0.535, 0.09, 0.625, 0.18, 0.7125, 0.2675, 0.8025, 0.3575, 0.8925, 0.445, 0, 0.535, 0.09, 0.625, 0.18, 0.7125, 0.2675, 0.8025, 0.3575, 0.8925, 0.445, 0, 0.535, 0.09, 0.625, 0.18, 0.7125, 0.2675, 0.8025, 0.3575, 0.8925, 0.445, 0, 0.535, 0.09, 0.625, 0.18, 0.7125, 0.2675, 0.8025, 0.3575, 0.8925, 0.445, 0, 0.535, 0.09, 0.625, 0.18, 0.7125, 0.2675, 0.8025, 0.3575, 0.8925, 0.445, 0, 0.535, 0.09, 0.625, 0.18, 0.7125, 0.2675, 0.8025, 0.3575, 0.8925, 0.445],
  "SoftwareVersions": "syngo_MR_E11",
  "SpacingBetweenSlices": 2,
  "StationName": "AWP166018",
  "TaskName": "sfprescaled",
  "TotalReadoutTime": 0.0597409,
  "TxRefAmp": 216.634,
  "WipMemBlock": "0147bbda-03b7-44ae-b501-601ec328b3ca||Sequence: R016 ve11c/master r/8780670; Nov 27 2017 15:05:12 by eja",
  "dcmmeta_affine": [
    [-1.9977065324783325, 0.0861738920211792, 0.04174263775348663, 103.73658752441406],
    [0.07778450101613998, 1.9689745903015137, -0.34218233823776245, -73.6180648803711],
    [0.0558386854827404, 0.34016647934913635, 1.970068335533142, -67.41401672363281],
    [0.0, 0.0, 0.0, 1.0]
],
  "dcmmeta_reorient_transform": [
    [0.0, -1.0, 0.0, 103.0],
    [1.0, 0.0, 0.0, 0.0],
    [0.0, 0.0, 1.0, 0.0],
    [0.0, 0.0, 0.0, 1.0]
],
  "dcmmeta_shape": [104, 104, 66, 264],
  "dcmmeta_slice_dim": 2,
  "dcmmeta_version": 0.6,
  "global": {
    "const": {
      "AccessionNumber": "k5odmn64",
      "AcquisitionMatrix": [104, 0, 0, 104],
      "AngioFlag": "N",
      "BitsAllocated": 16,
      "BitsStored": 16,
      "BodyPartExamined": "BRAIN",
      "Columns": 936,
      "EchoNumbers": 1,
      "EchoTime": 37.0,
      "EchoTrainLength": 104,
      "FlipAngle": 68.0,
      "HighBit": 15,
      "ImageOrientationPatient": [0.99885329406993, -0.0388922510526, 0.02791934336097, 0.04308694691435, 0.98448728111066, -0.1700832394357],
      "ImagePositionPatient": [-979.50677938651, -915.92138287249, 85.903491900522],
      "ImageType": [
        "ORIGINAL",
        "PRIMARY",
        "M",
        "MB",
        "ND",
        "MOSAIC"
],
      "ImagedNucleus": "1H",
      "ImagingFrequency": 123.190755,
      "InPlanePhaseEncodingDirection": "COL",
      "MRAcquisitionType": "2D",
      "MagneticFieldStrength": 3.0,
      "Manufacturer": "SIEMENS",
      "ManufacturerModelName": "Prisma",
      "Modality": "MR",
      "NumberOfAverages": 1.0,
      "NumberOfPhaseEncodingSteps": 104,
      "PercentPhaseFieldOfView": 100.0,
      "PercentSampling": 100.0,
      "PerformedProcedureStepStartTime": "103156.857000",
      "PhotometricInterpretation": "MONOCHROME2",
      "PixelBandwidth": 2290.0,
      "PixelRepresentation": 0,
      "PixelSpacing": [2.0, 2.0],
      "ProtocolName": "task-sfprescaled_cmrr_mbepi_s6_2mm_66sl_PA_TR1.0",
      "RepetitionTime": 1000.0,
      "Rows": 936,
      "SAR": 0.07280780157127,
      "SamplesPerPixel": 1,
      "ScanOptions": "FS",
      "ScanningSequence": "EP",
      "SequenceName": "epfid2d1_104",
      "SequenceVariant": [
        "SK",
        "SS"
],
      "SeriesDescription": "task-sfprescaled_cmrr_mbepi_s6_2mm_66sl_PA_TR1.0",
      "SeriesNumber": 14,
      "SeriesTime": "110041.899000",
      "SliceLocation": -51.644587110569,
      "SliceThickness": 2.0,
      "SmallestImagePixelValue": 0,
      "SoftwareVersions": "syngo MR E11",
      "SpacingBetweenSlices": 2.0000000771805,
      "SpecificCharacterSet": "ISO_IR 100",
      "StudyID": "1",
      "StudyTime": "103156.795000",
      "TransmitCoilName": "Body",
      "VariableFlipAngleFlag": "N",
      "WindowCenterWidthExplanation": "Algo1",
      "dBdt": 0.0},
    "slices": {}
  },
  "time": {
    "samples": {
      "AcquisitionNumber": [1, 2, 3, 4, 5, 6, 7, 8, 9, 10, 11, 12, 13, 14, 15, 16, 17, 18, 19, 20, 21, 22, 23, 24, 25, 26, 27, 28, 29, 30, 31, 32, 33, 34, 35, 36, 37, 38, 39, 40, 41, 42, 43, 44, 45, 46, 47, 48, 49, 50, 51, 52, 53, 54, 55, 56, 57, 58, 59, 60, 61, 62, 63, 64, 65, 66, 67, 68, 69, 70, 71, 72, 73, 74, 75, 76, 77, 78, 79, 80, 81, 82, 83, 84, 85, 86, 87, 88, 89, 90, 91, 92, 93, 94, 95, 96, 97, 98, 99, 100, 101, 102, 103, 104, 105, 106, 107, 108, 109, 110, 111, 112, 113, 114, 115, 116, 117, 118, 119, 120, 121, 122, 123, 124, 125, 126, 127, 128, 129, 130, 131, 132, 133, 134, 135, 136, 137, 138, 139, 140, 141, 142, 143, 144, 145, 146, 147, 148, 149, 150, 151, 152, 153, 154, 155, 156, 157, 158, 159, 160, 161, 162, 163, 164, 165, 166, 167, 168, 169, 170, 171, 172, 173, 174, 175, 176, 177, 178, 179, 180, 181, 182, 183, 184, 185, 186, 187, 188, 189, 190, 191, 192, 193, 194, 195, 196, 197, 198, 199, 200, 201, 202, 203, 204, 205, 206, 207, 208, 209, 210, 211, 212, 213, 214, 215, 216, 217, 218, 219, 220, 221, 222, 223, 224, 225, 226, 227, 228, 229, 230, 231, 232, 233, 234, 235, 236, 237, 238, 239, 240, 241, 242, 243, 244, 245, 246, 247, 248, 249, 250, 251, 252, 253, 254, 255, 256, 257, 258, 259, 260, 261, 262, 263, 264],
      "AcquisitionTime": ["105930.457500", "105931.457500", "105932.457500", "105933.457500", "105934.457500", "105935.457500", "105936.457500", "105937.457500", "105938.457500", "105939.457500", "105940.457500", "105941.457500", "105942.457500", "105943.457500", "105944.457500", "105945.457500", "105946.457500", "105947.457500", "105948.457500", "105949.457500", "105950.457500", "105951.457500", "105952.457500", "105953.457500", "105954.457500", "105955.457500", "105956.457500", "105957.457500", "105958.457500", "105959.457500", "110000.457500", "110001.457500", "110002.457500", "110003.457500", "110004.457500", "110005.457500", "110006.457500", "110007.457500", "110008.457500", "110009.457500", "110010.457500", "110011.457500", "110012.457500", "110013.457500", "110014.457500", "110015.457500", "110016.457500", "110017.457500", "110018.457500", "110019.457500", "110020.457500", "110021.457500", "110022.457500", "110023.457500", "110024.457500", "110025.457500", "110026.457500", "110027.457500", "110028.457500", "110029.457500", "110030.457500", "110031.457500", "110032.457500", "110033.457500", "110034.457500", "110035.457500", "110036.457500", "110037.457500", "110038.457500", "110039.457500", "110040.457500", "110041.457500", "110042.457500", "110043.457500", "110044.457500", "110045.457500", "110046.457500", "110047.457500", "110048.457500", "110049.457500", "110050.457500", "110051.457500", "110052.457500", "110053.457500", "110054.457500", "110055.457500", "110056.457500", "110057.457500", "110058.457500", "110059.457500", "110100.457500", "110101.457500", "110102.457500", "110103.457500", "110104.457500", "110105.457500", "110106.457500", "110107.457500", "110108.457500", "110109.457500", "110110.457500", "110111.457500", "110112.457500", "110113.457500", "110114.457500", "110115.457500", "110116.457500", "110117.457500", "110118.457500", "110119.457500", "110120.457500", "110121.457500", "110122.457500", "110123.457500", "110124.457500", "110125.457500", "110126.457500", "110127.457500", "110128.457500", "110129.457500", "110130.457500", "110131.457500", "110132.457500", "110133.457500", "110134.457500", "110135.457500", "110136.457500", "110137.457500", "110138.457500", "110139.457500", "110140.457500", "110141.457500", "110142.457500", "110143.457500", "110144.457500", "110145.457500", "110146.457500", "110147.457500", "110148.457500", "110149.457500", "110150.457500", "110151.457500", "110152.457500", "110153.457500", "110154.457500", "110155.457500", "110156.457500", "110157.457500", "110158.457500", "110159.457500", "110200.457500", "110201.457500", "110202.457500", "110203.457500", "110204.457500", "110205.457500", "110206.457500", "110207.457500", "110208.457500", "110209.457500", "110210.457500", "110211.457500", "110212.457500", "110213.457500", "110214.457500", "110215.457500", "110216.457500", "110217.457500", "110218.457500", "110219.457500", "110220.457500", "110221.457500", "110222.457500", "110223.457500", "110224.457500", "110225.457500", "110226.457500", "110227.457500", "110228.457500", "110229.457500", "110230.457500", "110231.457500", "110232.457500", "110233.457500", "110234.457500", "110235.457500", "110236.457500", "110237.457500", "110238.457500", "110239.457500", "110240.457500", "110241.457500", "110242.457500", "110243.457500", "110244.457500", "110245.457500", "110246.457500", "110247.457500", "110248.457500", "110249.457500", "110250.457500", "110251.457500", "110252.457500", "110253.457500", "110254.457500", "110255.457500", "110256.457500", "110257.457500", "110258.457500", "110259.457500", "110300.457500", "110301.457500", "110302.457500", "110303.457500", "110304.457500", "110305.457500", "110306.457500", "110307.457500", "110308.457500", "110309.457500", "110310.457500", "110311.457500", "110312.457500", "110313.457500", "110314.457500", "110315.457500", "110316.457500", "110317.457500", "110318.457500", "110319.457500", "110320.457500", "110321.457500", "110322.457500", "110323.457500", "110324.457500", "110325.457500", "110326.457500", "110327.457500", "110328.457500", "110329.457500", "110330.457500", "110331.457500", "110332.457500", "110333.457500", "110334.457500", "110335.457500", "110336.457500", "110337.457500", "110338.457500", "110339.457500", "110340.457500", "110341.457500", "110342.457500", "110343.457500", "110344.457500", "110345.457500", "110346.457500", "110347.457500", "110348.457500", "110349.457500", "110350.457500", "110351.457500", "110352.457500", "110353.457500"],
      "ContentTime": ["110041.902000", "110041.906000", "110041.909000", "110041.912000", "110041.914000", "110041.922000", "110041.925000", "110041.928000", "110041.931000", "110041.934000", "110041.937000", "110041.940000", "110041.943000", "110041.946000", "110041.949000", "110041.952000", "110041.955000", "110041.958000", "110041.961000", "110041.964000", "110041.967000", "110041.970000", "110101.865000", "110101.882000", "110101.885000", "110101.888000", "110101.891000", "110101.894000", "110101.897000", "110101.900000", "110101.903000", "110101.906000", "110101.909000", "110101.912000", "110101.915000", "110101.918000", "110101.921000", "110101.924000", "110101.927000", "110101.929000", "110101.933000", "110101.936000", "110101.938000", "110101.941000", "110101.944000", "110101.947000", "110101.950000", "110101.953000", "110101.956000", "110101.959000", "110121.865000", "110121.868000", "110121.871000", "110121.874000", "110121.877000", "110121.880000", "110121.883000", "110121.886000", "110121.889000", "110121.892000", "110121.895000", "110121.898000", "110121.901000", "110121.904000", "110121.907000", "110121.910000", "110121.913000", "110121.916000", "110121.919000", "110121.922000", "110121.925000", "110121.928000", "110121.931000", "110121.934000", "110121.937000", "110121.940000", "110121.943000", "110121.946000", "110141.865000", "110141.868000", "110141.871000", "110141.874000", "110141.877000", "110141.880000", "110141.884000", "110141.887000", "110141.891000", "110141.894000", "110141.897000", "110141.900000", "110141.903000", "110141.906000", "110141.909000", "110141.912000", "110141.915000", "110141.918000", "110141.921000", "110141.924000", "110141.927000", "110141.930000", "110141.933000", "110141.936000", "110141.939000", "110141.942000", "110141.945000", "110141.948000", "110201.865000", "110201.868000", "110201.871000", "110201.874000", "110201.877000", "110201.880000", "110201.883000", "110201.886000", "110201.889000", "110201.892000", "110201.895000", "110201.898000", "110201.901000", "110201.904000", "110201.907000", "110201.910000", "110201.913000", "110201.916000", "110201.922000", "110201.925000", "110201.928000", "110201.931000", "110201.934000", "110201.937000", "110201.940000", "110201.943000", "110201.946000", "110201.949000", "110201.952000", "110221.865000", "110221.868000", "110221.871000", "110221.874000", "110221.877000", "110221.880000", "110221.883000", "110221.886000", "110221.889000", "110221.892000", "110221.895000", "110221.898000", "110221.901000", "110221.904000", "110221.907000", "110221.910000", "110221.913000", "110221.916000", "110221.919000", "110221.922000", "110221.925000", "110221.928000", "110221.931000", "110221.934000", "110221.937000", "110221.940000", "110221.943000", "110221.946000", "110241.865000", "110241.868000", "110241.871000", "110241.874000", "110241.877000", "110241.880000", "110241.883000", "110241.886000", "110241.889000", "110241.892000", "110241.895000", "110241.898000", "110241.901000", "110241.904000", "110241.907000", "110241.910000", "110241.913000", "110241.916000", "110241.919000", "110241.922000", "110241.925000", "110241.928000", "110241.931000", "110241.934000", "110241.937000", "110241.940000", "110241.943000", "110301.865000", "110301.868000", "110301.879000", "110301.882000", "110301.885000", "110301.888000", "110301.891000", "110301.894000", "110301.897000", "110301.900000", "110301.903000", "110301.906000", "110301.909000", "110301.912000", "110301.915000", "110301.918000", "110301.921000", "110301.924000", "110301.927000", "110301.930000", "110321.882000", "110321.886000", "110321.889000", "110321.892000", "110321.895000", "110321.898000", "110321.901000", "110321.904000", "110321.907000", "110321.910000", "110321.913000", "110321.916000", "110321.919000", "110321.922000", "110321.925000", "110321.928000", "110321.931000", "110321.934000", "110321.937000", "110321.940000", "110341.865000", "110341.868000", "110341.871000", "110341.874000", "110341.877000", "110341.880000", "110341.883000", "110341.886000", "110341.889000", "110341.892000", "110341.895000", "110341.898000", "110341.901000", "110341.904000", "110341.907000", "110341.910000", "110341.913000", "110341.916000", "110341.919000", "110341.922000", "110355.421000", "110355.425000", "110355.430000", "110355.434000", "110355.438000", "110355.442000", "110355.446000", "110355.451000", "110355.456000", "110355.460000", "110355.464000", "110355.468000", "110355.471000", "110355.474000"],
      "InstanceCreationTime": ["110041.902000", "110041.906000", "110041.909000", "110041.912000", "110041.914000", "110041.922000", "110041.925000", "110041.928000", "110041.931000", "110041.934000", "110041.937000", "110041.940000", "110041.943000", "110041.946000", "110041.949000", "110041.952000", "110041.955000", "110041.958000", "110041.961000", "110041.964000", "110041.967000", "110041.970000", "110101.865000", "110101.882000", "110101.885000", "110101.888000", "110101.891000", "110101.894000", "110101.897000", "110101.900000", "110101.903000", "110101.906000", "110101.909000", "110101.912000", "110101.915000", "110101.918000", "110101.921000", "110101.924000", "110101.927000", "110101.929000", "110101.933000", "110101.936000", "110101.938000", "110101.941000", "110101.944000", "110101.947000", "110101.950000", "110101.953000", "110101.956000", "110101.959000", "110121.865000", "110121.868000", "110121.871000", "110121.874000", "110121.877000", "110121.880000", "110121.883000", "110121.886000", "110121.889000", "110121.892000", "110121.895000", "110121.898000", "110121.901000", "110121.904000", "110121.907000", "110121.910000", "110121.913000", "110121.916000", "110121.919000", "110121.922000", "110121.925000", "110121.928000", "110121.931000", "110121.934000", "110121.937000", "110121.940000", "110121.943000", "110121.946000", "110141.865000", "110141.868000", "110141.871000", "110141.874000", "110141.877000", "110141.880000", "110141.884000", "110141.887000", "110141.891000", "110141.894000", "110141.897000", "110141.900000", "110141.903000", "110141.906000", "110141.909000", "110141.912000", "110141.915000", "110141.918000", "110141.921000", "110141.924000", "110141.927000", "110141.930000", "110141.933000", "110141.936000", "110141.939000", "110141.942000", "110141.945000", "110141.948000", "110201.865000", "110201.868000", "110201.871000", "110201.874000", "110201.877000", "110201.880000", "110201.883000", "110201.886000", "110201.889000", "110201.892000", "110201.895000", "110201.898000", "110201.901000", "110201.904000", "110201.907000", "110201.910000", "110201.913000", "110201.916000", "110201.922000", "110201.925000", "110201.928000", "110201.931000", "110201.934000", "110201.937000", "110201.940000", "110201.943000", "110201.946000", "110201.949000", "110201.952000", "110221.865000", "110221.868000", "110221.871000", "110221.874000", "110221.877000", "110221.880000", "110221.883000", "110221.886000", "110221.889000", "110221.892000", "110221.895000", "110221.898000", "110221.901000", "110221.904000", "110221.907000", "110221.910000", "110221.913000", "110221.916000", "110221.919000", "110221.922000", "110221.925000", "110221.928000", "110221.931000", "110221.934000", "110221.937000", "110221.940000", "110221.943000", "110221.946000", "110241.865000", "110241.868000", "110241.871000", "110241.874000", "110241.877000", "110241.880000", "110241.883000", "110241.886000", "110241.889000", "110241.892000", "110241.895000", "110241.898000", "110241.901000", "110241.904000", "110241.907000", "110241.910000", "110241.913000", "110241.916000", "110241.919000", "110241.922000", "110241.925000", "110241.928000", "110241.931000", "110241.934000", "110241.937000", "110241.940000", "110241.943000", "110301.865000", "110301.868000", "110301.879000", "110301.882000", "110301.885000", "110301.888000", "110301.891000", "110301.894000", "110301.897000", "110301.900000", "110301.903000", "110301.906000", "110301.909000", "110301.912000", "110301.915000", "110301.918000", "110301.921000", "110301.924000", "110301.927000", "110301.930000", "110321.882000", "110321.886000", "110321.889000", "110321.892000", "110321.895000", "110321.898000", "110321.901000", "110321.904000", "110321.907000", "110321.910000", "110321.913000", "110321.916000", "110321.919000", "110321.922000", "110321.925000", "110321.928000", "110321.931000", "110321.934000", "110321.937000", "110321.940000", "110341.865000", "110341.868000", "110341.871000", "110341.874000", "110341.877000", "110341.880000", "110341.883000", "110341.886000", "110341.889000", "110341.892000", "110341.895000", "110341.898000", "110341.901000", "110341.904000", "110341.907000", "110341.910000", "110341.913000", "110341.916000", "110341.919000", "110341.922000", "110355.421000", "110355.425000", "110355.430000", "110355.434000", "110355.438000", "110355.442000", "110355.446000", "110355.451000", "110355.456000", "110355.460000", "110355.464000", "110355.468000", "110355.471000", "110355.474000"],
      "InstanceNumber": [1, 2, 3, 4, 5, 6, 7, 8, 9, 10, 11, 12, 13, 14, 15, 16, 17, 18, 19, 20, 21, 22, 23, 24, 25, 26, 27, 28, 29, 30, 31, 32, 33, 34, 35, 36, 37, 38, 39, 40, 41, 42, 43, 44, 45, 46, 47, 48, 49, 50, 51, 52, 53, 54, 55, 56, 57, 58, 59, 60, 61, 62, 63, 64, 65, 66, 67, 68, 69, 70, 71, 72, 73, 74, 75, 76, 77, 78, 79, 80, 81, 82, 83, 84, 85, 86, 87, 88, 89, 90, 91, 92, 93, 94, 95, 96, 97, 98, 99, 100, 101, 102, 103, 104, 105, 106, 107, 108, 109, 110, 111, 112, 113, 114, 115, 116, 117, 118, 119, 120, 121, 122, 123, 124, 125, 126, 127, 128, 129, 130, 131, 132, 133, 134, 135, 136, 137, 138, 139, 140, 141, 142, 143, 144, 145, 146, 147, 148, 149, 150, 151, 152, 153, 154, 155, 156, 157, 158, 159, 160, 161, 162, 163, 164, 165, 166, 167, 168, 169, 170, 171, 172, 173, 174, 175, 176, 177, 178, 179, 180, 181, 182, 183, 184, 185, 186, 187, 188, 189, 190, 191, 192, 193, 194, 195, 196, 197, 198, 199, 200, 201, 202, 203, 204, 205, 206, 207, 208, 209, 210, 211, 212, 213, 214, 215, 216, 217, 218, 219, 220, 221, 222, 223, 224, 225, 226, 227, 228, 229, 230, 231, 232, 233, 234, 235, 236, 237, 238, 239, 240, 241, 242, 243, 244, 245, 246, 247, 248, 249, 250, 251, 252, 253, 254, 255, 256, 257, 258, 259, 260, 261, 262, 263, 264],
      "LargestImagePixelValue": [38226, 32206, 30920, 30645, 30498, 30414, 30231, 30398, 30409, 30344, 30933, 30084, 30515, 30179, 30243, 30401, 30097, 30198, 30155, 30836, 30086, 30419, 30705, 30382, 30382, 30109, 30156, 30489, 30311, 29960, 30368, 30148, 30199, 29974, 30319, 30205, 30300, 29925, 30365, 30641, 30783, 30222, 30125, 30332, 29995, 30016, 30069, 30431, 30159, 30002, 29954, 30147, 30186, 30224, 30287, 30307, 30212, 30235, 30327, 30138, 30168, 30183, 29790, 30249, 29800, 29700, 30344, 30445, 30072, 30112, 30141, 30211, 30306, 30633, 30270, 30206, 30190, 30294, 29956, 30535, 30418, 29824, 30075, 30039, 30573, 30319, 30380, 29842, 30143, 30174, 29940, 30116, 30196, 29990, 30318, 29907, 29960, 30320, 30445, 30167, 30187, 30582, 30359, 30077, 30240, 30116, 30162, 30097, 30284, 30067, 30106, 29928, 30203, 30306, 30373, 29920, 30031, 30353, 29812, 30260, 30782, 30699, 30314, 30399, 30346, 30099, 30191, 30611, 30379, 30305, 30611, 30610, 30604, 30593, 30721, 30188, 30199, 30634, 30197, 30040, 30245, 30510, 30584, 30967, 30431, 30209, 29891, 31153, 30240, 30240, 30173, 30257, 30539, 30343, 30316, 30165, 30336, 30941, 31466, 31506, 30654, 30065, 30261, 30315, 30499, 30556, 30336, 30664, 30952, 30802, 31021, 30545, 30680, 30944, 30732, 30928, 30614, 30616, 30934, 30870, 30474, 31017, 30670, 30871, 30420, 30553, 30798, 30866, 30413, 31029, 30854, 30460, 30283, 30684, 30778, 30945, 30570, 30688, 30399, 30495, 30603, 31203, 30977, 30959, 30520, 30461, 31088, 30936, 30940, 30815, 30999, 31704, 31037, 30081, 30722, 30932, 30727, 30498, 30845, 30343, 30791, 30398, 30146, 30704, 30944, 30619, 30696, 30610, 30879, 30759, 30331, 30667, 30420, 30560, 30420, 30847, 30586, 30347, 29960, 30239, 30098, 30296, 29832, 30398, 30533, 30220, 30455, 30541, 30399, 30338, 30402, 30359, 30479, 30773, 31020, 30787, 30133, 30141, 30284, 30492, 30327, 30810, 30945, 31070],
      "WindowCenter": [9292.0, 9172.0, 9129.0, 9117.0, 9111.0, 9118.0, 9112.0, 9116.0, 9117.0, 9117.0, 9121.0, 9092.0, 9096.0, 9083.0, 9088.0, 9079.0, 9063.0, 9070.0, 9072.0, 9094.0, 9080.0, 9079.0, 9091.0, 9078.0, 9071.0, 9070.0, 9071.0, 9086.0, 9087.0, 9080.0, 9087.0, 9080.0, 9080.0, 9073.0, 9077.0, 9079.0, 9086.0, 9071.0, 9075.0, 9091.0, 9108.0, 9090.0, 9074.0, 9068.0, 9052.0, 9050.0, 9040.0, 9029.0, 9005.0, 8994.0, 9000.0, 9010.0, 9012.0, 9019.0, 9034.0, 9044.0, 9041.0, 9041.0, 9045.0, 9031.0, 9037.0, 9029.0, 9022.0, 9033.0, 9030.0, 9033.0, 9055.0, 9064.0, 9067.0, 9068.0, 9059.0, 9041.0, 9045.0, 9043.0, 9043.0, 9038.0, 9049.0, 9065.0, 9067.0, 9073.0, 9064.0, 9043.0, 9049.0, 9048.0, 9061.0, 9056.0, 9064.0, 9054.0, 9067.0, 9060.0, 9051.0, 9048.0, 9049.0, 9057.0, 9057.0, 9051.0, 9058.0, 9067.0, 9078.0, 9088.0, 9089.0, 9104.0, 9099.0, 9091.0, 9087.0, 9078.0, 9070.0, 9069.0, 9074.0, 9060.0, 9068.0, 9084.0, 9089.0, 9111.0, 9106.0, 9099.0, 9090.0, 9087.0, 9072.0, 9081.0, 9099.0, 9103.0, 9089.0, 9070.0, 9050.0, 9041.0, 9039.0, 9061.0, 9063.0, 9059.0, 9055.0, 9044.0, 9026.0, 9025.0, 9025.0, 9012.0, 9019.0, 9025.0, 9028.0, 9023.0, 9038.0, 9037.0, 9055.0, 9081.0, 9094.0, 9100.0, 9095.0, 9137.0, 9127.0, 9119.0, 9094.0, 9080.0, 9062.0, 9051.0, 9057.0, 9049.0, 9057.0, 9093.0, 9115.0, 9105.0, 9072.0, 9041.0, 9036.0, 9036.0, 9021.0, 9019.0, 9001.0, 8988.0, 8975.0, 8966.0, 8979.0, 8976.0, 8992.0, 9001.0, 9006.0, 9022.0, 9027.0, 9044.0, 9053.0, 9058.0, 9069.0, 9091.0, 9094.0, 9103.0, 9090.0, 9090.0, 9097.0, 9098.0, 9100.0, 9113.0, 9116.0, 9119.0, 9117.0, 9122.0, 9125.0, 9138.0, 9139.0, 9141.0, 9130.0, 9137.0, 9135.0, 9139.0, 9126.0, 9124.0, 9111.0, 9100.0, 9095.0, 9103.0, 9113.0, 9113.0, 9113.0, 9128.0, 9112.0, 9092.0, 9104.0, 9119.0, 9124.0, 9129.0, 9136.0, 9112.0, 9093.0, 9073.0, 9049.0, 9051.0, 9056.0, 9057.0, 9058.0, 9058.0, 9057.0, 9059.0, 9070.0, 9087.0, 9091.0, 9115.0, 9120.0, 9129.0, 9136.0, 9124.0, 9123.0, 9115.0, 9106.0, 9120.0, 9109.0, 9132.0, 9133.0, 9126.0, 9125.0, 9107.0, 9088.0, 9076.0, 9071.0, 9073.0, 9073.0, 9097.0, 9124.0, 9133.0, 9113.0, 9096.0, 9092.0, 9064.0, 9044.0, 9041.0, 9038.0, 9034.0],
      "WindowWidth": [19760.0, 19517.0, 19423.0, 19385.0, 19373.0, 19386.0, 19376.0, 19378.0, 19380.0, 19380.0, 19384.0, 19329.0, 19331.0, 19310.0, 19315.0, 19296.0, 19266.0, 19278.0, 19286.0, 19327.0, 19302.0, 19297.0, 19317.0, 19296.0, 19282.0, 19279.0, 19283.0, 19311.0, 19315.0, 19303.0, 19314.0, 19305.0, 19303.0, 19289.0, 19294.0, 19299.0, 19313.0, 19285.0, 19289.0, 19318.0, 19352.0, 19322.0, 19290.0, 19272.0, 19242.0, 19236.0, 19214.0, 19187.0, 19139.0, 19116.0, 19128.0, 19148.0, 19156.0, 19167.0, 19195.0, 19220.0, 19220.0, 19221.0, 19223.0, 19197.0, 19207.0, 19194.0, 19183.0, 19195.0, 19198.0, 19207.0, 19249.0, 19267.0, 19277.0, 19277.0, 19261.0, 19222.0, 19223.0, 19218.0, 19218.0, 19212.0, 19236.0, 19268.0, 19273.0, 19280.0, 19265.0, 19225.0, 19233.0, 19234.0, 19254.0, 19246.0, 19263.0, 19251.0, 19274.0, 19260.0, 19242.0, 19231.0, 19234.0, 19249.0, 19251.0, 19242.0, 19256.0, 19276.0, 19300.0, 19322.0, 19327.0, 19356.0, 19349.0, 19332.0, 19318.0, 19299.0, 19282.0, 19281.0, 19288.0, 19261.0, 19278.0, 19309.0, 19326.0, 19367.0, 19361.0, 19348.0, 19329.0, 19320.0, 19292.0, 19303.0, 19340.0, 19349.0, 19325.0, 19282.0, 19234.0, 19214.0, 19208.0, 19250.0, 19257.0, 19252.0, 19240.0, 19213.0, 19178.0, 19176.0, 19178.0, 19158.0, 19171.0, 19178.0, 19188.0, 19183.0, 19213.0, 19212.0, 19250.0, 19300.0, 19333.0, 19352.0, 19345.0, 19419.0, 19410.0, 19392.0, 19344.0, 19306.0, 19268.0, 19238.0, 19250.0, 19237.0, 19252.0, 19318.0, 19367.0, 19339.0, 19274.0, 19214.0, 19201.0, 19198.0, 19171.0, 19164.0, 19127.0, 19094.0, 19065.0, 19048.0, 19072.0, 19071.0, 19104.0, 19124.0, 19139.0, 19170.0, 19185.0, 19220.0, 19237.0, 19253.0, 19278.0, 19317.0, 19331.0, 19350.0, 19328.0, 19327.0, 19342.0, 19347.0, 19352.0, 19375.0, 19384.0, 19394.0, 19388.0, 19390.0, 19399.0, 19422.0, 19427.0, 19431.0, 19417.0, 19429.0, 19421.0, 19423.0, 19403.0, 19399.0, 19374.0, 19352.0, 19330.0, 19344.0, 19366.0, 19369.0, 19370.0, 19400.0, 19364.0, 19332.0, 19347.0, 19377.0, 19393.0, 19408.0, 19423.0, 19374.0, 19330.0, 19283.0, 19237.0, 19235.0, 19245.0, 19250.0, 19255.0, 19254.0, 19249.0, 19257.0, 19286.0, 19318.0, 19329.0, 19376.0, 19396.0, 19415.0, 19427.0, 19408.0, 19405.0, 19389.0, 19368.0, 19393.0, 19379.0, 19421.0, 19424.0, 19413.0, 19408.0, 19371.0, 19329.0, 19299.0, 19277.0, 19284.0, 19288.0, 19333.0, 19386.0, 19405.0, 19368.0, 19334.0, 19320.0, 19263.0, 19218.0, 19209.0, 19202.0, 19190.0]
    },
    "slices": {}
  },
  "NumberOfVolumes": 264
}