{
  "AcquisitionMatrixPE": 104,
  "AcquisitionNumber": 1,
  "AcquisitionTime": "10:49:38.440000",
  "BandwidthPerPixelPhaseEncode": 16.578,
  "BaseResolution": 104,
  "BodyPartExamined": "BRAIN",
  "ConsistencyInfo": "N4_VE11C_LATEST_20160120",
  "ConversionSoftware": "dcm2niix",
  "ConversionSoftwareVersion": "v1.0.20190410  GCC6.3.0",
  "DerivedVendorReportedEchoSpacing": 0.000580009,
  "DeviceSerialNumber": "166018",
  "DwellTime": 2.1e-06,
  "EchoTime": 0.037,
  "EchoTrainLength": 104,
  "EffectiveEchoSpacing": 0.000580009,
  "FlipAngle": 68,
  "ImageComments": "Unaliased_MB6_PE3_LB",
  "ImageOrientationPatientDICOM": [0.998853, -0.0388923, 0.0279193, 0.0430869, 0.984487, -0.170083],
  "ImageType": [
    "ORIGINAL",
    "PRIMARY",
    "M",
    "MB",
    "ND",
    "MOSAIC"
],
  "ImagingFrequency": 123.191,
  "InPlanePhaseEncodingDirectionDICOM": "COL",
  "InstitutionAddress": "Washington_Place_6_NYC_NYC_US_10003",
  "InstitutionName": "NYU_-_CBI",
  "InstitutionalDepartmentName": "Department",
  "MRAcquisitionType": "2D",
  "MagneticFieldStrength": 3,
  "Manufacturer": "Siemens",
  "ManufacturersModelName": "Prisma",
  "Modality": "MR",
  "MultibandAccelerationFactor": 6,
  "PartialFourier": 1,
  "PatientPosition": "HFS",
  "PercentPhaseFOV": 100,
  "PhaseEncodingDirection": "j",
  "PhaseEncodingSteps": 104,
  "PhaseResolution": 1,
  "PixelBandwidth": 2290,
  "ProcedureStepDescription": "Investigators_Winawer",
  "ProtocolName": "task-sfprescaled_cmrr_mbepi_s6_2mm_66sl_PA_TR1.0",
  "PulseSequenceDetails": "%CustomerSeq%_cmrr_mbep2d_bold",
  "ReceiveCoilActiveElements": "HC1-7",
  "ReceiveCoilName": "HeadNeck_64",
  "ReconMatrixPE": 104,
  "RepetitionTime": 1,
  "SAR": 0.0728078,
  "ScanOptions": "FS",
  "ScanningSequence": "EP",
  "SequenceName": "epfid2d1_104",
  "SequenceVariant": "SK_SS",
  "SeriesDescription": "task-sfprescaled_cmrr_mbepi_s6_2mm_66sl_PA_TR1.0",
  "SeriesNumber": 10,
  "ShimSetting": [252, -12611, -8531, 327, -46, -7, 35, 0],
  "SliceThickness": 2,
  "SliceTiming": [0, 0.535, 0.09, 0.625, 0.1775, 0.7125, 0.2675, 0.8025, 0.3575, 0.89, 0.445, 0, 0.535, 0.09, 0.625, 0.1775, 0.7125, 0.2675, 0.8025, 0.3575, 0.89, 0.445, 0, 0.535, 0.09, 0.625, 0.1775, 0.7125, 0.2675, 0.8025, 0.3575, 0.89, 0.445, 0, 0.535, 0.09, 0.625, 0.1775, 0.7125, 0.2675, 0.8025, 0.3575, 0.89, 0.445, 0, 0.535, 0.09, 0.625, 0.1775, 0.7125, 0.2675, 0.8025, 0.3575, 0.89, 0.445, 0, 0.535, 0.09, 0.625, 0.1775, 0.7125, 0.2675, 0.8025, 0.3575, 0.89, 0.445],
  "SoftwareVersions": "syngo_MR_E11",
  "SpacingBetweenSlices": 2,
  "StationName": "AWP166018",
  "TaskName": "sfprescaled",
  "TotalReadoutTime": 0.0597409,
  "TxRefAmp": 216.634,
  "WipMemBlock": "0147bbda-03b7-44ae-b501-601ec328b3ca||Sequence: R016 ve11c/master r/8780670; Nov 27 2017 15:05:12 by eja",
  "dcmmeta_affine": [
    [-1.9977065324783325, 0.0861738920211792, 0.04174263775348663, 103.73658752441406],
    [0.07778450101613998, 1.9689745903015137, -0.34218233823776245, -73.6180648803711],
    [0.0558386854827404, 0.34016647934913635, 1.970068335533142, -67.41401672363281],
    [0.0, 0.0, 0.0, 1.0]
],
  "dcmmeta_reorient_transform": [
    [0.0, -1.0, 0.0, 103.0],
    [1.0, 0.0, 0.0, 0.0],
    [0.0, 0.0, 1.0, 0.0],
    [0.0, 0.0, 0.0, 1.0]
],
  "dcmmeta_shape": [104, 104, 66, 264],
  "dcmmeta_slice_dim": 2,
  "dcmmeta_version": 0.6,
  "global": {
    "const": {
      "AccessionNumber": "k5odmn64",
      "AcquisitionMatrix": [104, 0, 0, 104],
      "AngioFlag": "N",
      "BitsAllocated": 16,
      "BitsStored": 16,
      "BodyPartExamined": "BRAIN",
      "Columns": 936,
      "EchoNumbers": 1,
      "EchoTime": 37.0,
      "EchoTrainLength": 104,
      "FlipAngle": 68.0,
      "HighBit": 15,
      "ImageOrientationPatient": [0.99885329406993, -0.0388922510526, 0.02791934336097, 0.04308694691435, 0.98448728111066, -0.1700832394357],
      "ImagePositionPatient": [-979.50677938651, -915.92138287249, 85.903491900522],
      "ImageType": [
        "ORIGINAL",
        "PRIMARY",
        "M",
        "MB",
        "ND",
        "MOSAIC"
],
      "ImagedNucleus": "1H",
      "ImagingFrequency": 123.190755,
      "InPlanePhaseEncodingDirection": "COL",
      "MRAcquisitionType": "2D",
      "MagneticFieldStrength": 3.0,
      "Manufacturer": "SIEMENS",
      "ManufacturerModelName": "Prisma",
      "Modality": "MR",
      "NumberOfAverages": 1.0,
      "NumberOfPhaseEncodingSteps": 104,
      "PercentPhaseFieldOfView": 100.0,
      "PercentSampling": 100.0,
      "PerformedProcedureStepStartTime": "103156.857000",
      "PhotometricInterpretation": "MONOCHROME2",
      "PixelBandwidth": 2290.0,
      "PixelRepresentation": 0,
      "PixelSpacing": [2.0, 2.0],
      "ProtocolName": "task-sfprescaled_cmrr_mbepi_s6_2mm_66sl_PA_TR1.0",
      "RepetitionTime": 1000.0,
      "Rows": 936,
      "SAR": 0.07280780157127,
      "SamplesPerPixel": 1,
      "ScanOptions": "FS",
      "ScanningSequence": "EP",
      "SequenceName": "epfid2d1_104",
      "SequenceVariant": [
        "SK",
        "SS"
],
      "SeriesDescription": "task-sfprescaled_cmrr_mbepi_s6_2mm_66sl_PA_TR1.0",
      "SeriesNumber": 10,
      "SeriesTime": "105101.963000",
      "SliceLocation": -51.644587110569,
      "SliceThickness": 2.0,
      "SmallestImagePixelValue": 0,
      "SoftwareVersions": "syngo MR E11",
      "SpacingBetweenSlices": 2.0000000771805,
      "SpecificCharacterSet": "ISO_IR 100",
      "StudyID": "1",
      "StudyTime": "103156.795000",
      "TransmitCoilName": "Body",
      "VariableFlipAngleFlag": "N",
      "WindowCenterWidthExplanation": "Algo1",
      "dBdt": 0.0},
    "slices": {}
  },
  "time": {
    "samples": {
      "AcquisitionNumber": [1, 2, 3, 4, 5, 6, 7, 8, 9, 10, 11, 12, 13, 14, 15, 16, 17, 18, 19, 20, 21, 22, 23, 24, 25, 26, 27, 28, 29, 30, 31, 32, 33, 34, 35, 36, 37, 38, 39, 40, 41, 42, 43, 44, 45, 46, 47, 48, 49, 50, 51, 52, 53, 54, 55, 56, 57, 58, 59, 60, 61, 62, 63, 64, 65, 66, 67, 68, 69, 70, 71, 72, 73, 74, 75, 76, 77, 78, 79, 80, 81, 82, 83, 84, 85, 86, 87, 88, 89, 90, 91, 92, 93, 94, 95, 96, 97, 98, 99, 100, 101, 102, 103, 104, 105, 106, 107, 108, 109, 110, 111, 112, 113, 114, 115, 116, 117, 118, 119, 120, 121, 122, 123, 124, 125, 126, 127, 128, 129, 130, 131, 132, 133, 134, 135, 136, 137, 138, 139, 140, 141, 142, 143, 144, 145, 146, 147, 148, 149, 150, 151, 152, 153, 154, 155, 156, 157, 158, 159, 160, 161, 162, 163, 164, 165, 166, 167, 168, 169, 170, 171, 172, 173, 174, 175, 176, 177, 178, 179, 180, 181, 182, 183, 184, 185, 186, 187, 188, 189, 190, 191, 192, 193, 194, 195, 196, 197, 198, 199, 200, 201, 202, 203, 204, 205, 206, 207, 208, 209, 210, 211, 212, 213, 214, 215, 216, 217, 218, 219, 220, 221, 222, 223, 224, 225, 226, 227, 228, 229, 230, 231, 232, 233, 234, 235, 236, 237, 238, 239, 240, 241, 242, 243, 244, 245, 246, 247, 248, 249, 250, 251, 252, 253, 254, 255, 256, 257, 258, 259, 260, 261, 262, 263, 264],
      "AcquisitionTime": ["104938.440000", "104939.440000", "104940.440000", "104941.440000", "104942.440000", "104943.440000", "104944.440000", "104945.440000", "104946.440000", "104947.440000", "104948.440000", "104949.440000", "104950.440000", "104951.440000", "104952.440000", "104953.440000", "104954.440000", "104955.440000", "104956.440000", "104957.440000", "104958.440000", "104959.440000", "105000.440000", "105001.440000", "105002.440000", "105003.440000", "105004.440000", "105005.440000", "105006.440000", "105007.440000", "105008.440000", "105009.440000", "105010.440000", "105011.440000", "105012.440000", "105013.440000", "105014.440000", "105015.440000", "105016.440000", "105017.440000", "105018.440000", "105019.440000", "105020.440000", "105021.440000", "105022.440000", "105023.440000", "105024.440000", "105025.440000", "105026.440000", "105027.440000", "105028.440000", "105029.440000", "105030.440000", "105031.440000", "105032.440000", "105033.440000", "105034.440000", "105035.440000", "105036.440000", "105037.440000", "105038.440000", "105039.440000", "105040.440000", "105041.440000", "105042.440000", "105043.440000", "105044.440000", "105045.440000", "105046.440000", "105047.440000", "105048.440000", "105049.440000", "105050.440000", "105051.440000", "105052.440000", "105053.440000", "105054.440000", "105055.440000", "105056.440000", "105057.440000", "105058.440000", "105059.440000", "105100.440000", "105101.440000", "105102.440000", "105103.440000", "105104.440000", "105105.440000", "105106.440000", "105107.440000", "105108.440000", "105109.440000", "105110.440000", "105111.440000", "105112.440000", "105113.440000", "105114.440000", "105115.440000", "105116.440000", "105117.440000", "105118.440000", "105119.440000", "105120.440000", "105121.440000", "105122.440000", "105123.440000", "105124.440000", "105125.440000", "105126.440000", "105127.440000", "105128.440000", "105129.440000", "105130.440000", "105131.440000", "105132.440000", "105133.440000", "105134.440000", "105135.440000", "105136.440000", "105137.440000", "105138.440000", "105139.440000", "105140.440000", "105141.440000", "105142.440000", "105143.440000", "105144.440000", "105145.440000", "105146.440000", "105147.440000", "105148.440000", "105149.440000", "105150.440000", "105151.440000", "105152.440000", "105153.440000", "105154.440000", "105155.440000", "105156.440000", "105157.440000", "105158.440000", "105159.440000", "105200.440000", "105201.440000", "105202.440000", "105203.440000", "105204.440000", "105205.440000", "105206.440000", "105207.440000", "105208.440000", "105209.440000", "105210.440000", "105211.440000", "105212.440000", "105213.440000", "105214.440000", "105215.440000", "105216.440000", "105217.440000", "105218.440000", "105219.440000", "105220.440000", "105221.440000", "105222.440000", "105223.440000", "105224.440000", "105225.440000", "105226.440000", "105227.440000", "105228.440000", "105229.440000", "105230.440000", "105231.440000", "105232.440000", "105233.440000", "105234.440000", "105235.440000", "105236.440000", "105237.440000", "105238.440000", "105239.440000", "105240.440000", "105241.440000", "105242.440000", "105243.440000", "105244.440000", "105245.440000", "105246.440000", "105247.440000", "105248.440000", "105249.440000", "105250.440000", "105251.440000", "105252.440000", "105253.440000", "105254.440000", "105255.440000", "105256.440000", "105257.440000", "105258.440000", "105259.440000", "105300.440000", "105301.440000", "105302.440000", "105303.440000", "105304.440000", "105305.440000", "105306.440000", "105307.440000", "105308.440000", "105309.440000", "105310.440000", "105311.440000", "105312.440000", "105313.440000", "105314.440000", "105315.440000", "105316.440000", "105317.440000", "105318.440000", "105319.440000", "105320.440000", "105321.440000", "105322.440000", "105323.440000", "105324.440000", "105325.440000", "105326.440000", "105327.440000", "105328.440000", "105329.440000", "105330.440000", "105331.440000", "105332.440000", "105333.440000", "105334.440000", "105335.440000", "105336.440000", "105337.440000", "105338.440000", "105339.440000", "105340.440000", "105341.440000", "105342.440000", "105343.440000", "105344.440000", "105345.440000", "105346.440000", "105347.440000", "105348.440000", "105349.440000", "105350.440000", "105351.440000", "105352.440000", "105353.440000", "105354.440000", "105355.440000", "105356.440000", "105357.440000", "105358.440000", "105359.440000", "105400.440000", "105401.440000"],
      "ContentTime": ["105101.966000", "105101.970000", "105101.973000", "105101.983000", "105101.986000", "105101.989000", "105101.992000", "105101.995000", "105102.003000", "105102.007000", "105102.010000", "105102.013000", "105102.016000", "105102.019000", "105102.022000", "105102.025000", "105102.028000", "105102.031000", "105102.034000", "105102.036000", "105102.039000", "105102.043000", "105102.046000", "105102.068000", "105102.071000", "105102.075000", "105102.078000", "105102.080000", "105102.083000", "105102.086000", "105102.089000", "105102.092000", "105102.095000", "105102.098000", "105102.105000", "105102.108000", "105102.111000", "105102.114000", "105102.117000", "105102.120000", "105102.123000", "105102.126000", "105102.129000", "105102.132000", "105102.135000", "105102.138000", "105102.141000", "105121.936000", "105121.939000", "105121.942000", "105121.945000", "105121.948000", "105121.951000", "105121.954000", "105121.957000", "105121.960000", "105121.963000", "105121.966000", "105121.969000", "105121.972000", "105121.975000", "105121.978000", "105121.989000", "105121.992000", "105121.995000", "105121.998000", "105122.002000", "105122.005000", "105122.008000", "105122.011000", "105122.014000", "105122.017000", "105122.020000", "105122.023000", "105122.026000", "105122.029000", "105141.936000", "105141.939000", "105141.942000", "105141.945000", "105141.948000", "105141.951000", "105141.954000", "105141.957000", "105141.960000", "105141.963000", "105141.966000", "105141.969000", "105141.972000", "105141.975000", "105141.978000", "105141.981000", "105141.984000", "105141.987000", "105141.990000", "105141.993000", "105141.996000", "105142.000000", "105142.003000", "105142.006000", "105142.009000", "105142.012000", "105142.015000", "105142.018000", "105201.936000", "105201.939000", "105201.942000", "105201.945000", "105201.948000", "105201.951000", "105201.954000", "105201.957000", "105201.960000", "105201.963000", "105201.966000", "105201.969000", "105201.972000", "105201.975000", "105201.978000", "105201.981000", "105201.984000", "105201.987000", "105201.990000", "105201.993000", "105201.996000", "105202.000000", "105202.003000", "105202.006000", "105202.009000", "105202.012000", "105202.015000", "105202.018000", "105221.936000", "105221.939000", "105221.942000", "105221.945000", "105221.948000", "105221.951000", "105221.954000", "105221.957000", "105221.960000", "105221.963000", "105221.966000", "105221.969000", "105221.972000", "105221.975000", "105221.978000", "105221.981000", "105221.984000", "105221.987000", "105221.990000", "105221.993000", "105221.996000", "105221.999000", "105222.002000", "105222.005000", "105222.008000", "105222.011000", "105222.014000", "105222.017000", "105222.020000", "105241.936000", "105241.939000", "105241.942000", "105241.945000", "105241.948000", "105241.951000", "105241.954000", "105241.957000", "105241.960000", "105241.963000", "105241.966000", "105241.969000", "105241.972000", "105241.975000", "105241.978000", "105241.981000", "105241.984000", "105241.987000", "105241.990000", "105241.993000", "105241.996000", "105301.936000", "105301.939000", "105301.942000", "105301.945000", "105301.948000", "105301.951000", "105301.954000", "105301.957000", "105301.960000", "105301.963000", "105301.966000", "105301.969000", "105301.972000", "105301.975000", "105301.978000", "105301.981000", "105301.984000", "105301.987000", "105301.990000", "105301.993000", "105321.936000", "105321.939000", "105321.942000", "105321.945000", "105321.948000", "105321.951000", "105321.954000", "105321.957000", "105321.975000", "105321.978000", "105321.988000", "105321.991000", "105321.994000", "105321.997000", "105322.001000", "105322.004000", "105322.007000", "105322.010000", "105322.013000", "105322.016000", "105341.936000", "105341.939000", "105341.942000", "105341.945000", "105341.948000", "105341.951000", "105341.955000", "105341.957000", "105341.960000", "105341.963000", "105341.967000", "105341.970000", "105341.973000", "105341.976000", "105341.979000", "105341.982000", "105341.985000", "105341.988000", "105341.991000", "105341.994000", "105401.936000", "105401.939000", "105401.950000", "105401.953000", "105401.956000", "105401.959000", "105401.962000", "105401.965000", "105401.968000", "105401.971000", "105401.974000", "105401.977000", "105401.980000", "105401.983000", "105401.993000", "105401.996000", "105402.000000", "105402.003000", "105402.006000", "105402.009000", "105403.492000", "105403.496000"],
      "InstanceCreationTime": ["105101.966000", "105101.970000", "105101.973000", "105101.983000", "105101.986000", "105101.989000", "105101.992000", "105101.995000", "105102.003000", "105102.007000", "105102.010000", "105102.013000", "105102.016000", "105102.019000", "105102.022000", "105102.025000", "105102.028000", "105102.031000", "105102.034000", "105102.036000", "105102.039000", "105102.043000", "105102.046000", "105102.068000", "105102.071000", "105102.075000", "105102.078000", "105102.080000", "105102.083000", "105102.086000", "105102.089000", "105102.092000", "105102.095000", "105102.098000", "105102.105000", "105102.108000", "105102.111000", "105102.114000", "105102.117000", "105102.120000", "105102.123000", "105102.126000", "105102.129000", "105102.132000", "105102.135000", "105102.138000", "105102.141000", "105121.936000", "105121.939000", "105121.942000", "105121.945000", "105121.948000", "105121.951000", "105121.954000", "105121.957000", "105121.960000", "105121.963000", "105121.966000", "105121.969000", "105121.972000", "105121.975000", "105121.978000", "105121.989000", "105121.992000", "105121.995000", "105121.998000", "105122.002000", "105122.005000", "105122.008000", "105122.011000", "105122.014000", "105122.017000", "105122.020000", "105122.023000", "105122.026000", "105122.029000", "105141.936000", "105141.939000", "105141.942000", "105141.945000", "105141.948000", "105141.951000", "105141.954000", "105141.957000", "105141.960000", "105141.963000", "105141.966000", "105141.969000", "105141.972000", "105141.975000", "105141.978000", "105141.981000", "105141.984000", "105141.987000", "105141.990000", "105141.993000", "105141.996000", "105142.000000", "105142.003000", "105142.006000", "105142.009000", "105142.012000", "105142.015000", "105142.018000", "105201.936000", "105201.939000", "105201.942000", "105201.945000", "105201.948000", "105201.951000", "105201.954000", "105201.957000", "105201.960000", "105201.963000", "105201.966000", "105201.969000", "105201.972000", "105201.975000", "105201.978000", "105201.981000", "105201.984000", "105201.987000", "105201.990000", "105201.993000", "105201.996000", "105202.000000", "105202.003000", "105202.006000", "105202.009000", "105202.012000", "105202.015000", "105202.018000", "105221.936000", "105221.939000", "105221.942000", "105221.945000", "105221.948000", "105221.951000", "105221.954000", "105221.957000", "105221.960000", "105221.963000", "105221.966000", "105221.969000", "105221.972000", "105221.975000", "105221.978000", "105221.981000", "105221.984000", "105221.987000", "105221.990000", "105221.993000", "105221.996000", "105221.999000", "105222.002000", "105222.005000", "105222.008000", "105222.011000", "105222.014000", "105222.017000", "105222.020000", "105241.936000", "105241.939000", "105241.942000", "105241.945000", "105241.948000", "105241.951000", "105241.954000", "105241.957000", "105241.960000", "105241.963000", "105241.966000", "105241.969000", "105241.972000", "105241.975000", "105241.978000", "105241.981000", "105241.984000", "105241.987000", "105241.990000", "105241.993000", "105241.996000", "105301.936000", "105301.939000", "105301.942000", "105301.945000", "105301.948000", "105301.951000", "105301.954000", "105301.957000", "105301.960000", "105301.963000", "105301.966000", "105301.969000", "105301.972000", "105301.975000", "105301.978000", "105301.981000", "105301.984000", "105301.987000", "105301.990000", "105301.993000", "105321.936000", "105321.939000", "105321.942000", "105321.945000", "105321.948000", "105321.951000", "105321.954000", "105321.957000", "105321.975000", "105321.978000", "105321.988000", "105321.991000", "105321.994000", "105321.997000", "105322.001000", "105322.004000", "105322.007000", "105322.010000", "105322.013000", "105322.016000", "105341.936000", "105341.939000", "105341.942000", "105341.945000", "105341.948000", "105341.951000", "105341.955000", "105341.957000", "105341.960000", "105341.963000", "105341.967000", "105341.970000", "105341.973000", "105341.976000", "105341.979000", "105341.982000", "105341.985000", "105341.988000", "105341.991000", "105341.994000", "105401.936000", "105401.939000", "105401.950000", "105401.953000", "105401.956000", "105401.959000", "105401.962000", "105401.965000", "105401.968000", "105401.971000", "105401.974000", "105401.977000", "105401.980000", "105401.983000", "105401.993000", "105401.996000", "105402.000000", "105402.003000", "105402.006000", "105402.009000", "105403.492000", "105403.496000"],
      "InstanceNumber": [1, 2, 3, 4, 5, 6, 7, 8, 9, 10, 11, 12, 13, 14, 15, 16, 17, 18, 19, 20, 21, 22, 23, 24, 25, 26, 27, 28, 29, 30, 31, 32, 33, 34, 35, 36, 37, 38, 39, 40, 41, 42, 43, 44, 45, 46, 47, 48, 49, 50, 51, 52, 53, 54, 55, 56, 57, 58, 59, 60, 61, 62, 63, 64, 65, 66, 67, 68, 69, 70, 71, 72, 73, 74, 75, 76, 77, 78, 79, 80, 81, 82, 83, 84, 85, 86, 87, 88, 89, 90, 91, 92, 93, 94, 95, 96, 97, 98, 99, 100, 101, 102, 103, 104, 105, 106, 107, 108, 109, 110, 111, 112, 113, 114, 115, 116, 117, 118, 119, 120, 121, 122, 123, 124, 125, 126, 127, 128, 129, 130, 131, 132, 133, 134, 135, 136, 137, 138, 139, 140, 141, 142, 143, 144, 145, 146, 147, 148, 149, 150, 151, 152, 153, 154, 155, 156, 157, 158, 159, 160, 161, 162, 163, 164, 165, 166, 167, 168, 169, 170, 171, 172, 173, 174, 175, 176, 177, 178, 179, 180, 181, 182, 183, 184, 185, 186, 187, 188, 189, 190, 191, 192, 193, 194, 195, 196, 197, 198, 199, 200, 201, 202, 203, 204, 205, 206, 207, 208, 209, 210, 211, 212, 213, 214, 215, 216, 217, 218, 219, 220, 221, 222, 223, 224, 225, 226, 227, 228, 229, 230, 231, 232, 233, 234, 235, 236, 237, 238, 239, 240, 241, 242, 243, 244, 245, 246, 247, 248, 249, 250, 251, 252, 253, 254, 255, 256, 257, 258, 259, 260, 261, 262, 263, 264],
      "LargestImagePixelValue": [31863, 33229, 30164, 30343, 30224, 29588, 29944, 29605, 29533, 29760, 29512, 29707, 29624, 29404, 29429, 29591, 29663, 30038, 29701, 29124, 29497, 29695, 29691, 29536, 29522, 29511, 29923, 29892, 29827, 29559, 29261, 29741, 29899, 29767, 29493, 29291, 29914, 29511, 29703, 29554, 29547, 29358, 29672, 29560, 29951, 29430, 29336, 29465, 29577, 29631, 29589, 29608, 29871, 29799, 30246, 29721, 29831, 29804, 30113, 29754, 29502, 29466, 29758, 29737, 29307, 29497, 29610, 29743, 29767, 29798, 29575, 29678, 29530, 30078, 30173, 29784, 29657, 29648, 30262, 29992, 29823, 29724, 29540, 29749, 29897, 29444, 29648, 29451, 29591, 29721, 29769, 30054, 29364, 29618, 29372, 29392, 29603, 30073, 29648, 29710, 29472, 30108, 29966, 29765, 29854, 29930, 29667, 29603, 29395, 29894, 29480, 29435, 29687, 29865, 29932, 29742, 29656, 30032, 29814, 29585, 29753, 29743, 29869, 29767, 29628, 29775, 29615, 29425, 29960, 29548, 29537, 29740, 29444, 29791, 29888, 29493, 29460, 29690, 29604, 30182, 29942, 29726, 30010, 29696, 29830, 29645, 29899, 29737, 29691, 29447, 29604, 30122, 29769, 29630, 29434, 29896, 29821, 29587, 29894, 30059, 29698, 29738, 30031, 29905, 29466, 29464, 30065, 30053, 29821, 29958, 29691, 29841, 29730, 29784, 30001, 29980, 30200, 29652, 29779, 30385, 30213, 29736, 29720, 29845, 30018, 29970, 30118, 29753, 30079, 29799, 29632, 29743, 29868, 30333, 30040, 30009, 29891, 29972, 29824, 29688, 29724, 29936, 29845, 29687, 30236, 30083, 30049, 29469, 30524, 30029, 29852, 29744, 29948, 30192, 29724, 29752, 29528, 30088, 29868, 29614, 30156, 30437, 30385, 29625, 29830, 30029, 29929, 29758, 29612, 29773, 29945, 29708, 29696, 29717, 29922, 29854, 29509, 30089, 29790, 29933, 29831, 30000, 30243, 29670, 29548, 30104, 30235, 29865, 29704, 30069, 30219, 29993, 29718, 30397, 30557, 30139, 30265, 30697, 30320, 30293, 30173, 30181, 30631, 30462],
      "WindowCenter": [9156.0, 9148.0, 9077.0, 9064.0, 9043.0, 9013.0, 9024.0, 9016.0, 9008.0, 9014.0, 9008.0, 9023.0, 9031.0, 9027.0, 9035.0, 9030.0, 9036.0, 9041.0, 9026.0, 9012.0, 9026.0, 9035.0, 9043.0, 9039.0, 9049.0, 9065.0, 9078.0, 9064.0, 9055.0, 9039.0, 9033.0, 9060.0, 9069.0, 9073.0, 9077.0, 9085.0, 9090.0, 9076.0, 9075.0, 9061.0, 9060.0, 9058.0, 9064.0, 9064.0, 9069.0, 9056.0, 9059.0, 9067.0, 9067.0, 9065.0, 9059.0, 9074.0, 9082.0, 9082.0, 9082.0, 9077.0, 9075.0, 9065.0, 9063.0, 9056.0, 9056.0, 9049.0, 9057.0, 9066.0, 9067.0, 9060.0, 9073.0, 9082.0, 9078.0, 9085.0, 9079.0, 9092.0, 9087.0, 9091.0, 9090.0, 9083.0, 9082.0, 9082.0, 9088.0, 9082.0, 9082.0, 9074.0, 9067.0, 9067.0, 9065.0, 9059.0, 9074.0, 9078.0, 9086.0, 9085.0, 9078.0, 9082.0, 9068.0, 9064.0, 9057.0, 9066.0, 9074.0, 9089.0, 9084.0, 9091.0, 9084.0, 9082.0, 9081.0, 9066.0, 9064.0, 9063.0, 9056.0, 9064.0, 9066.0, 9075.0, 9086.0, 9096.0, 9096.0, 9085.0, 9072.0, 9056.0, 9054.0, 9054.0, 9054.0, 9049.0, 9063.0, 9071.0, 9074.0, 9084.0, 9086.0, 9076.0, 9059.0, 9044.0, 9055.0, 9040.0, 9039.0, 9047.0, 9050.0, 9065.0, 9073.0, 9070.0, 9073.0, 9079.0, 9070.0, 9073.0, 9071.0, 9066.0, 9079.0, 9066.0, 9066.0, 9074.0, 9085.0, 9086.0, 9086.0, 9071.0, 9069.0, 9082.0, 9069.0, 9066.0, 9057.0, 9064.0, 9065.0, 9059.0, 9067.0, 9082.0, 9078.0, 9086.0, 9093.0, 9087.0, 9080.0, 9078.0, 9074.0, 9073.0, 9075.0, 9084.0, 9086.0, 9088.0, 9097.0, 9089.0, 9086.0, 9084.0, 9075.0, 9060.0, 9066.0, 9077.0, 9067.0, 9069.0, 9076.0, 9076.0, 9083.0, 9085.0, 9094.0, 9086.0, 9093.0, 9087.0, 9087.0, 9079.0, 9086.0, 9108.0, 9104.0, 9104.0, 9087.0, 9078.0, 9069.0, 9061.0, 9059.0, 9064.0, 9058.0, 9052.0, 9066.0, 9082.0, 9085.0, 9080.0, 9092.0, 9094.0, 9102.0, 9097.0, 9101.0, 9094.0, 9087.0, 9079.0, 9062.0, 9066.0, 9066.0, 9067.0, 9075.0, 9083.0, 9092.0, 9082.0, 9073.0, 9079.0, 9079.0, 9078.0, 9078.0, 9078.0, 9085.0, 9088.0, 9103.0, 9107.0, 9124.0, 9118.0, 9100.0, 9095.0, 9078.0, 9075.0, 9065.0, 9064.0, 9070.0, 9059.0, 9058.0, 9073.0, 9081.0, 9077.0, 9076.0, 9074.0, 9066.0, 9064.0, 9048.0, 9051.0, 9051.0, 9052.0, 9059.0, 9059.0, 9060.0, 9060.0, 9061.0, 9062.0, 9083.0, 9087.0],
      "WindowWidth": [19493.0, 19445.0, 19307.0, 19271.0, 19220.0, 19162.0, 19176.0, 19160.0, 19146.0, 19153.0, 19147.0, 19174.0, 19189.0, 19188.0, 19203.0, 19198.0, 19205.0, 19212.0, 19182.0, 19159.0, 19184.0, 19204.0, 19219.0, 19217.0, 19241.0, 19273.0, 19294.0, 19271.0, 19250.0, 19220.0, 19209.0, 19258.0, 19274.0, 19287.0, 19301.0, 19319.0, 19323.0, 19297.0, 19295.0, 19272.0, 19265.0, 19258.0, 19269.0, 19268.0, 19275.0, 19253.0, 19262.0, 19278.0, 19277.0, 19270.0, 19262.0, 19290.0, 19308.0, 19308.0, 19307.0, 19298.0, 19291.0, 19267.0, 19262.0, 19250.0, 19252.0, 19241.0, 19254.0, 19274.0, 19278.0, 19265.0, 19288.0, 19307.0, 19305.0, 19315.0, 19307.0, 19331.0, 19324.0, 19326.0, 19323.0, 19311.0, 19309.0, 19305.0, 19315.0, 19306.0, 19307.0, 19291.0, 19279.0, 19277.0, 19271.0, 19262.0, 19293.0, 19307.0, 19323.0, 19317.0, 19304.0, 19309.0, 19282.0, 19269.0, 19259.0, 19278.0, 19293.0, 19319.0, 19314.0, 19327.0, 19313.0, 19307.0, 19303.0, 19278.0, 19269.0, 19265.0, 19255.0, 19270.0, 19277.0, 19295.0, 19321.0, 19344.0, 19343.0, 19317.0, 19285.0, 19255.0, 19247.0, 19245.0, 19246.0, 19241.0, 19266.0, 19284.0, 19293.0, 19315.0, 19321.0, 19299.0, 19264.0, 19233.0, 19249.0, 19220.0, 19219.0, 19234.0, 19246.0, 19274.0, 19289.0, 19291.0, 19301.0, 19308.0, 19287.0, 19283.0, 19279.0, 19273.0, 19295.0, 19274.0, 19270.0, 19290.0, 19313.0, 19320.0, 19319.0, 19290.0, 19285.0, 19304.0, 19284.0, 19273.0, 19257.0, 19270.0, 19274.0, 19263.0, 19276.0, 19305.0, 19304.0, 19319.0, 19331.0, 19322.0, 19310.0, 19302.0, 19287.0, 19286.0, 19294.0, 19316.0, 19321.0, 19328.0, 19345.0, 19330.0, 19318.0, 19312.0, 19293.0, 19265.0, 19272.0, 19289.0, 19275.0, 19281.0, 19294.0, 19295.0, 19308.0, 19315.0, 19334.0, 19320.0, 19332.0, 19320.0, 19322.0, 19304.0, 19318.0, 19359.0, 19357.0, 19357.0, 19321.0, 19300.0, 19283.0, 19266.0, 19259.0, 19265.0, 19259.0, 19250.0, 19274.0, 19306.0, 19312.0, 19309.0, 19325.0, 19333.0, 19349.0, 19342.0, 19343.0, 19331.0, 19319.0, 19304.0, 19268.0, 19270.0, 19271.0, 19275.0, 19289.0, 19306.0, 19328.0, 19315.0, 19298.0, 19303.0, 19303.0, 19304.0, 19303.0, 19300.0, 19314.0, 19323.0, 19351.0, 19364.0, 19398.0, 19388.0, 19349.0, 19332.0, 19298.0, 19289.0, 19267.0, 19262.0, 19271.0, 19257.0, 19257.0, 19282.0, 19300.0, 19299.0, 19293.0, 19286.0, 19270.0, 19264.0, 19230.0, 19231.0, 19233.0, 19238.0, 19250.0, 19250.0, 19255.0, 19255.0, 19258.0, 19261.0, 19296.0, 19313.0]
    },
    "slices": {}
  },
  "NumberOfVolumes": 264
}