{
  "AcquisitionMatrixPE": 104,
  "AcquisitionNumber": 1,
  "AcquisitionTime": "11:36:34.540000",
  "BandwidthPerPixelPhaseEncode": 16.578,
  "BaseResolution": 104,
  "BodyPartExamined": "BRAIN",
  "ConsistencyInfo": "N4_VE11C_LATEST_20160120",
  "ConversionSoftware": "dcm2niix",
  "ConversionSoftwareVersion": "v1.0.20190410  GCC6.3.0",
  "DerivedVendorReportedEchoSpacing": 0.000580009,
  "DeviceSerialNumber": "166018",
  "DwellTime": 2.1e-06,
  "EchoTime": 0.037,
  "EchoTrainLength": 104,
  "EffectiveEchoSpacing": 0.000580009,
  "FlipAngle": 68,
  "ImageComments": "Unaliased_MB6_PE3_LB",
  "ImageOrientationPatientDICOM": [0.998853, -0.0388923, 0.0279193, 0.0430869, 0.984487, -0.170083],
  "ImageType": [
    "ORIGINAL",
    "PRIMARY",
    "M",
    "MB",
    "ND",
    "MOSAIC"
],
  "ImagingFrequency": 123.191,
  "InPlanePhaseEncodingDirectionDICOM": "COL",
  "InstitutionAddress": "Washington_Place_6_NYC_NYC_US_10003",
  "InstitutionName": "NYU_-_CBI",
  "InstitutionalDepartmentName": "Department",
  "MRAcquisitionType": "2D",
  "MagneticFieldStrength": 3,
  "Manufacturer": "Siemens",
  "ManufacturersModelName": "Prisma",
  "Modality": "MR",
  "MultibandAccelerationFactor": 6,
  "PartialFourier": 1,
  "PatientPosition": "HFS",
  "PercentPhaseFOV": 100,
  "PhaseEncodingDirection": "j",
  "PhaseEncodingSteps": 104,
  "PhaseResolution": 1,
  "PixelBandwidth": 2290,
  "ProcedureStepDescription": "Investigators_Winawer",
  "ProtocolName": "task-sfprescaled_cmrr_mbepi_s6_2mm_66sl_PA_TR1.0",
  "PulseSequenceDetails": "%CustomerSeq%_cmrr_mbep2d_bold",
  "ReceiveCoilActiveElements": "HC1-7",
  "ReceiveCoilName": "HeadNeck_64",
  "ReconMatrixPE": 104,
  "RepetitionTime": 1,
  "SAR": 0.0728078,
  "ScanOptions": "FS",
  "ScanningSequence": "EP",
  "SequenceName": "epfid2d1_104",
  "SequenceVariant": "SK_SS",
  "SeriesDescription": "task-sfprescaled_cmrr_mbepi_s6_2mm_66sl_PA_TR1.0",
  "SeriesNumber": 28,
  "ShimSetting": [252, -12611, -8531, 327, -46, -7, 35, 0],
  "SliceThickness": 2,
  "SliceTiming": [0, 0.535, 0.09, 0.6225, 0.1775, 0.7125, 0.2675, 0.8025, 0.3575, 0.89, 0.445, 0, 0.535, 0.09, 0.6225, 0.1775, 0.7125, 0.2675, 0.8025, 0.3575, 0.89, 0.445, 0, 0.535, 0.09, 0.6225, 0.1775, 0.7125, 0.2675, 0.8025, 0.3575, 0.89, 0.445, 0, 0.535, 0.09, 0.6225, 0.1775, 0.7125, 0.2675, 0.8025, 0.3575, 0.89, 0.445, 0, 0.535, 0.09, 0.6225, 0.1775, 0.7125, 0.2675, 0.8025, 0.3575, 0.89, 0.445, 0, 0.535, 0.09, 0.6225, 0.1775, 0.7125, 0.2675, 0.8025, 0.3575, 0.89, 0.445],
  "SoftwareVersions": "syngo_MR_E11",
  "SpacingBetweenSlices": 2,
  "StationName": "AWP166018",
  "TaskName": "sfprescaled",
  "TotalReadoutTime": 0.0597409,
  "TxRefAmp": 216.634,
  "WipMemBlock": "0147bbda-03b7-44ae-b501-601ec328b3ca||Sequence: R016 ve11c/master r/8780670; Nov 27 2017 15:05:12 by eja",
  "dcmmeta_affine": [
    [-1.9977065324783325, 0.0861738920211792, 0.04174263775348663, 103.73658752441406],
    [0.07778450101613998, 1.9689745903015137, -0.34218233823776245, -73.6180648803711],
    [0.0558386854827404, 0.34016647934913635, 1.970068335533142, -67.41401672363281],
    [0.0, 0.0, 0.0, 1.0]
],
  "dcmmeta_reorient_transform": [
    [0.0, -1.0, 0.0, 103.0],
    [1.0, 0.0, 0.0, 0.0],
    [0.0, 0.0, 1.0, 0.0],
    [0.0, 0.0, 0.0, 1.0]
],
  "dcmmeta_shape": [104, 104, 66, 264],
  "dcmmeta_slice_dim": 2,
  "dcmmeta_version": 0.6,
  "global": {
    "const": {
      "AccessionNumber": "k5odmn64",
      "AcquisitionMatrix": [104, 0, 0, 104],
      "AngioFlag": "N",
      "BitsAllocated": 16,
      "BitsStored": 16,
      "BodyPartExamined": "BRAIN",
      "Columns": 936,
      "EchoNumbers": 1,
      "EchoTime": 37.0,
      "EchoTrainLength": 104,
      "FlipAngle": 68.0,
      "HighBit": 15,
      "ImageOrientationPatient": [0.99885329406993, -0.0388922510526, 0.02791934336097, 0.04308694691435, 0.98448728111066, -0.1700832394357],
      "ImagePositionPatient": [-979.50677938651, -915.92138287249, 85.903491900522],
      "ImageType": [
        "ORIGINAL",
        "PRIMARY",
        "M",
        "MB",
        "ND",
        "MOSAIC"
],
      "ImagedNucleus": "1H",
      "ImagingFrequency": 123.190755,
      "InPlanePhaseEncodingDirection": "COL",
      "MRAcquisitionType": "2D",
      "MagneticFieldStrength": 3.0,
      "Manufacturer": "SIEMENS",
      "ManufacturerModelName": "Prisma",
      "Modality": "MR",
      "NumberOfAverages": 1.0,
      "NumberOfPhaseEncodingSteps": 104,
      "PercentPhaseFieldOfView": 100.0,
      "PercentSampling": 100.0,
      "PerformedProcedureStepStartTime": "103156.857000",
      "PhotometricInterpretation": "MONOCHROME2",
      "PixelBandwidth": 2290.0,
      "PixelRepresentation": 0,
      "PixelSpacing": [2.0, 2.0],
      "ProtocolName": "task-sfprescaled_cmrr_mbepi_s6_2mm_66sl_PA_TR1.0",
      "RepetitionTime": 1000.0,
      "Rows": 936,
      "SAR": 0.07280780157127,
      "SamplesPerPixel": 1,
      "ScanOptions": "FS",
      "ScanningSequence": "EP",
      "SequenceName": "epfid2d1_104",
      "SequenceVariant": [
        "SK",
        "SS"
],
      "SeriesDescription": "task-sfprescaled_cmrr_mbepi_s6_2mm_66sl_PA_TR1.0",
      "SeriesNumber": 28,
      "SeriesTime": "113741.971000",
      "SliceLocation": -51.644587110569,
      "SliceThickness": 2.0,
      "SmallestImagePixelValue": 0,
      "SoftwareVersions": "syngo MR E11",
      "SpacingBetweenSlices": 2.0000000771805,
      "SpecificCharacterSet": "ISO_IR 100",
      "StudyID": "1",
      "StudyTime": "103156.795000",
      "TransmitCoilName": "Body",
      "VariableFlipAngleFlag": "N",
      "WindowCenterWidthExplanation": "Algo1",
      "dBdt": 0.0},
    "slices": {}
  },
  "time": {
    "samples": {
      "AcquisitionNumber": [1, 2, 3, 4, 5, 6, 7, 8, 9, 10, 11, 12, 13, 14, 15, 16, 17, 18, 19, 20, 21, 22, 23, 24, 25, 26, 27, 28, 29, 30, 31, 32, 33, 34, 35, 36, 37, 38, 39, 40, 41, 42, 43, 44, 45, 46, 47, 48, 49, 50, 51, 52, 53, 54, 55, 56, 57, 58, 59, 60, 61, 62, 63, 64, 65, 66, 67, 68, 69, 70, 71, 72, 73, 74, 75, 76, 77, 78, 79, 80, 81, 82, 83, 84, 85, 86, 87, 88, 89, 90, 91, 92, 93, 94, 95, 96, 97, 98, 99, 100, 101, 102, 103, 104, 105, 106, 107, 108, 109, 110, 111, 112, 113, 114, 115, 116, 117, 118, 119, 120, 121, 122, 123, 124, 125, 126, 127, 128, 129, 130, 131, 132, 133, 134, 135, 136, 137, 138, 139, 140, 141, 142, 143, 144, 145, 146, 147, 148, 149, 150, 151, 152, 153, 154, 155, 156, 157, 158, 159, 160, 161, 162, 163, 164, 165, 166, 167, 168, 169, 170, 171, 172, 173, 174, 175, 176, 177, 178, 179, 180, 181, 182, 183, 184, 185, 186, 187, 188, 189, 190, 191, 192, 193, 194, 195, 196, 197, 198, 199, 200, 201, 202, 203, 204, 205, 206, 207, 208, 209, 210, 211, 212, 213, 214, 215, 216, 217, 218, 219, 220, 221, 222, 223, 224, 225, 226, 227, 228, 229, 230, 231, 232, 233, 234, 235, 236, 237, 238, 239, 240, 241, 242, 243, 244, 245, 246, 247, 248, 249, 250, 251, 252, 253, 254, 255, 256, 257, 258, 259, 260, 261, 262, 263, 264],
      "AcquisitionTime": ["113634.540000", "113635.540000", "113636.540000", "113637.540000", "113638.540000", "113639.540000", "113640.540000", "113641.540000", "113642.540000", "113643.540000", "113644.540000", "113645.540000", "113646.540000", "113647.540000", "113648.540000", "113649.540000", "113650.540000", "113651.540000", "113652.540000", "113653.540000", "113654.540000", "113655.540000", "113656.540000", "113657.540000", "113658.540000", "113659.540000", "113700.540000", "113701.540000", "113702.540000", "113703.540000", "113704.540000", "113705.540000", "113706.540000", "113707.540000", "113708.540000", "113709.540000", "113710.540000", "113711.540000", "113712.540000", "113713.540000", "113714.540000", "113715.540000", "113716.540000", "113717.540000", "113718.540000", "113719.540000", "113720.540000", "113721.540000", "113722.540000", "113723.540000", "113724.540000", "113725.540000", "113726.540000", "113727.540000", "113728.540000", "113729.540000", "113730.540000", "113731.540000", "113732.540000", "113733.540000", "113734.540000", "113735.540000", "113736.540000", "113737.540000", "113738.540000", "113739.540000", "113740.540000", "113741.540000", "113742.540000", "113743.540000", "113744.540000", "113745.540000", "113746.540000", "113747.540000", "113748.540000", "113749.540000", "113750.540000", "113751.540000", "113752.540000", "113753.540000", "113754.540000", "113755.540000", "113756.540000", "113757.540000", "113758.540000", "113759.540000", "113800.540000", "113801.540000", "113802.540000", "113803.540000", "113804.540000", "113805.540000", "113806.540000", "113807.540000", "113808.540000", "113809.540000", "113810.540000", "113811.540000", "113812.540000", "113813.540000", "113814.540000", "113815.540000", "113816.540000", "113817.540000", "113818.540000", "113819.540000", "113820.540000", "113821.540000", "113822.540000", "113823.540000", "113824.540000", "113825.540000", "113826.540000", "113827.540000", "113828.540000", "113829.540000", "113830.540000", "113831.540000", "113832.540000", "113833.540000", "113834.540000", "113835.540000", "113836.540000", "113837.540000", "113838.540000", "113839.540000", "113840.540000", "113841.540000", "113842.540000", "113843.540000", "113844.540000", "113845.540000", "113846.540000", "113847.540000", "113848.540000", "113849.540000", "113850.540000", "113851.540000", "113852.540000", "113853.540000", "113854.540000", "113855.540000", "113856.540000", "113857.540000", "113858.540000", "113859.540000", "113900.540000", "113901.540000", "113902.540000", "113903.540000", "113904.540000", "113905.540000", "113906.540000", "113907.540000", "113908.540000", "113909.540000", "113910.540000", "113911.540000", "113912.540000", "113913.540000", "113914.540000", "113915.540000", "113916.540000", "113917.540000", "113918.540000", "113919.540000", "113920.540000", "113921.540000", "113922.540000", "113923.540000", "113924.540000", "113925.540000", "113926.540000", "113927.540000", "113928.540000", "113929.540000", "113930.540000", "113931.540000", "113932.540000", "113933.540000", "113934.540000", "113935.540000", "113936.540000", "113937.540000", "113938.540000", "113939.540000", "113940.540000", "113941.540000", "113942.540000", "113943.540000", "113944.540000", "113945.540000", "113946.540000", "113947.540000", "113948.540000", "113949.540000", "113950.540000", "113951.540000", "113952.540000", "113953.540000", "113954.540000", "113955.540000", "113956.540000", "113957.540000", "113958.540000", "113959.540000", "114000.540000", "114001.540000", "114002.540000", "114003.540000", "114004.540000", "114005.540000", "114006.540000", "114007.540000", "114008.540000", "114009.540000", "114010.540000", "114011.540000", "114012.540000", "114013.540000", "114014.540000", "114015.540000", "114016.540000", "114017.540000", "114018.540000", "114019.540000", "114020.540000", "114021.540000", "114022.540000", "114023.540000", "114024.540000", "114025.540000", "114026.540000", "114027.540000", "114028.540000", "114029.540000", "114030.540000", "114031.540000", "114032.540000", "114033.540000", "114034.540000", "114035.540000", "114036.540000", "114037.540000", "114038.540000", "114039.540000", "114040.540000", "114041.540000", "114042.540000", "114043.540000", "114044.540000", "114045.540000", "114046.540000", "114047.540000", "114048.540000", "114049.540000", "114050.540000", "114051.540000", "114052.540000", "114053.540000", "114054.540000", "114055.540000", "114056.540000", "114057.540000"],
      "ContentTime": ["113741.974000", "113741.982000", "113741.985000", "113741.988000", "113741.991000", "113741.994000", "113741.997000", "113742.001000", "113742.004000", "113742.007000", "113742.010000", "113742.013000", "113742.016000", "113742.023000", "113742.026000", "113742.029000", "113742.032000", "113742.035000", "113742.038000", "113742.041000", "113742.044000", "113742.047000", "113742.050000", "113742.053000", "113742.056000", "113742.059000", "113801.936000", "113801.939000", "113801.945000", "113801.949000", "113801.951000", "113801.954000", "113801.957000", "113801.961000", "113801.963000", "113801.966000", "113801.969000", "113801.973000", "113801.975000", "113801.978000", "113801.981000", "113801.984000", "113801.987000", "113801.990000", "113801.993000", "113801.996000", "113802.000000", "113802.003000", "113802.006000", "113802.009000", "113802.012000", "113802.015000", "113802.018000", "113802.021000", "113821.936000", "113821.939000", "113821.942000", "113821.945000", "113821.948000", "113821.951000", "113821.954000", "113821.957000", "113821.960000", "113821.963000", "113821.966000", "113821.969000", "113821.973000", "113821.976000", "113821.979000", "113821.982000", "113821.985000", "113821.988000", "113821.991000", "113821.994000", "113821.997000", "113822.033000", "113822.036000", "113822.039000", "113822.042000", "113822.045000", "113822.048000", "113822.051000", "113841.936000", "113841.939000", "113841.942000", "113841.945000", "113841.948000", "113841.952000", "113841.958000", "113841.961000", "113841.964000", "113841.967000", "113841.970000", "113841.973000", "113841.976000", "113841.979000", "113841.982000", "113841.985000", "113841.988000", "113841.992000", "113841.995000", "113841.998000", "113842.001000", "113842.004000", "113842.007000", "113842.010000", "113842.013000", "113842.016000", "113842.019000", "113842.022000", "113842.025000", "113901.936000", "113901.939000", "113901.942000", "113901.945000", "113901.948000", "113901.951000", "113901.954000", "113901.957000", "113901.960000", "113901.963000", "113901.966000", "113901.969000", "113901.972000", "113901.975000", "113901.978000", "113901.981000", "113901.984000", "113901.993000", "113901.996000", "113901.998000", "113902.003000", "113902.006000", "113902.009000", "113902.011000", "113902.030000", "113902.033000", "113902.036000", "113902.039000", "113921.936000", "113921.939000", "113921.942000", "113921.945000", "113921.948000", "113921.951000", "113921.954000", "113921.957000", "113921.960000", "113921.963000", "113921.966000", "113921.969000", "113921.972000", "113921.975000", "113921.978000", "113921.981000", "113921.984000", "113921.987000", "113921.990000", "113921.993000", "113921.996000", "113922.000000", "113922.003000", "113922.006000", "113922.009000", "113922.012000", "113922.015000", "113941.936000", "113941.939000", "113941.942000", "113941.945000", "113941.948000", "113941.951000", "113941.954000", "113941.957000", "113941.960000", "113941.963000", "113941.966000", "113941.969000", "113941.972000", "113941.975000", "113941.978000", "113941.981000", "113941.984000", "113941.987000", "113941.990000", "113941.993000", "114001.936000", "114001.939000", "114001.942000", "114001.945000", "114001.948000", "114001.951000", "114001.954000", "114001.957000", "114001.960000", "114001.963000", "114001.966000", "114001.969000", "114001.972000", "114001.975000", "114001.978000", "114001.981000", "114001.984000", "114001.987000", "114001.990000", "114001.993000", "114021.936000", "114021.939000", "114021.942000", "114021.945000", "114021.948000", "114021.951000", "114021.954000", "114021.957000", "114021.960000", "114021.963000", "114021.966000", "114021.969000", "114021.972000", "114021.975000", "114021.978000", "114021.981000", "114021.984000", "114021.987000", "114021.990000", "114021.993000", "114041.936000", "114041.939000", "114041.942000", "114041.945000", "114041.948000", "114041.951000", "114041.954000", "114041.957000", "114041.960000", "114041.963000", "114041.966000", "114041.969000", "114041.972000", "114041.975000", "114041.978000", "114041.981000", "114041.984000", "114041.987000", "114041.990000", "114041.993000", "114059.652000", "114059.657000", "114059.661000", "114059.672000", "114059.675000", "114059.680000", "114059.683000", "114059.686000", "114059.692000", "114059.696000", "114059.700000", "114059.705000", "114059.710000", "114059.714000", "114059.720000", "114059.724000", "114059.728000", "114059.735000"],
      "InstanceCreationTime": ["113741.974000", "113741.982000", "113741.985000", "113741.988000", "113741.991000", "113741.994000", "113741.997000", "113742.001000", "113742.004000", "113742.007000", "113742.010000", "113742.013000", "113742.016000", "113742.023000", "113742.026000", "113742.029000", "113742.032000", "113742.035000", "113742.038000", "113742.041000", "113742.044000", "113742.047000", "113742.050000", "113742.053000", "113742.056000", "113742.059000", "113801.936000", "113801.939000", "113801.945000", "113801.949000", "113801.951000", "113801.954000", "113801.957000", "113801.961000", "113801.963000", "113801.966000", "113801.969000", "113801.973000", "113801.975000", "113801.978000", "113801.981000", "113801.984000", "113801.987000", "113801.990000", "113801.993000", "113801.996000", "113802.000000", "113802.003000", "113802.006000", "113802.009000", "113802.012000", "113802.015000", "113802.018000", "113802.021000", "113821.936000", "113821.939000", "113821.942000", "113821.945000", "113821.948000", "113821.951000", "113821.954000", "113821.957000", "113821.960000", "113821.963000", "113821.966000", "113821.969000", "113821.973000", "113821.976000", "113821.979000", "113821.982000", "113821.985000", "113821.988000", "113821.991000", "113821.994000", "113821.997000", "113822.033000", "113822.036000", "113822.039000", "113822.042000", "113822.045000", "113822.048000", "113822.051000", "113841.936000", "113841.939000", "113841.942000", "113841.945000", "113841.948000", "113841.952000", "113841.958000", "113841.961000", "113841.964000", "113841.967000", "113841.970000", "113841.973000", "113841.976000", "113841.979000", "113841.982000", "113841.985000", "113841.988000", "113841.992000", "113841.995000", "113841.998000", "113842.001000", "113842.004000", "113842.007000", "113842.010000", "113842.013000", "113842.016000", "113842.019000", "113842.022000", "113842.025000", "113901.936000", "113901.939000", "113901.942000", "113901.945000", "113901.948000", "113901.951000", "113901.954000", "113901.957000", "113901.960000", "113901.963000", "113901.966000", "113901.969000", "113901.972000", "113901.975000", "113901.978000", "113901.981000", "113901.984000", "113901.993000", "113901.996000", "113901.998000", "113902.003000", "113902.006000", "113902.009000", "113902.011000", "113902.030000", "113902.033000", "113902.036000", "113902.039000", "113921.936000", "113921.939000", "113921.942000", "113921.945000", "113921.948000", "113921.951000", "113921.954000", "113921.957000", "113921.960000", "113921.963000", "113921.966000", "113921.969000", "113921.972000", "113921.975000", "113921.978000", "113921.981000", "113921.984000", "113921.987000", "113921.990000", "113921.993000", "113921.996000", "113922.000000", "113922.003000", "113922.006000", "113922.009000", "113922.012000", "113922.015000", "113941.936000", "113941.939000", "113941.942000", "113941.945000", "113941.948000", "113941.951000", "113941.954000", "113941.957000", "113941.960000", "113941.963000", "113941.966000", "113941.969000", "113941.972000", "113941.975000", "113941.978000", "113941.981000", "113941.984000", "113941.987000", "113941.990000", "113941.993000", "114001.936000", "114001.939000", "114001.942000", "114001.945000", "114001.948000", "114001.951000", "114001.954000", "114001.957000", "114001.960000", "114001.963000", "114001.966000", "114001.969000", "114001.972000", "114001.975000", "114001.978000", "114001.981000", "114001.984000", "114001.987000", "114001.990000", "114001.993000", "114021.936000", "114021.939000", "114021.942000", "114021.945000", "114021.948000", "114021.951000", "114021.954000", "114021.957000", "114021.960000", "114021.963000", "114021.966000", "114021.969000", "114021.972000", "114021.975000", "114021.978000", "114021.981000", "114021.984000", "114021.987000", "114021.990000", "114021.993000", "114041.936000", "114041.939000", "114041.942000", "114041.945000", "114041.948000", "114041.951000", "114041.954000", "114041.957000", "114041.960000", "114041.963000", "114041.966000", "114041.969000", "114041.972000", "114041.975000", "114041.978000", "114041.981000", "114041.984000", "114041.987000", "114041.990000", "114041.993000", "114059.652000", "114059.657000", "114059.661000", "114059.672000", "114059.675000", "114059.680000", "114059.683000", "114059.686000", "114059.692000", "114059.696000", "114059.700000", "114059.705000", "114059.710000", "114059.714000", "114059.720000", "114059.724000", "114059.728000", "114059.735000"],
      "InstanceNumber": [1, 2, 3, 4, 5, 6, 7, 8, 9, 10, 11, 12, 13, 14, 15, 16, 17, 18, 19, 20, 21, 22, 23, 24, 25, 26, 27, 28, 29, 30, 31, 32, 33, 34, 35, 36, 37, 38, 39, 40, 41, 42, 43, 44, 45, 46, 47, 48, 49, 50, 51, 52, 53, 54, 55, 56, 57, 58, 59, 60, 61, 62, 63, 64, 65, 66, 67, 68, 69, 70, 71, 72, 73, 74, 75, 76, 77, 78, 79, 80, 81, 82, 83, 84, 85, 86, 87, 88, 89, 90, 91, 92, 93, 94, 95, 96, 97, 98, 99, 100, 101, 102, 103, 104, 105, 106, 107, 108, 109, 110, 111, 112, 113, 114, 115, 116, 117, 118, 119, 120, 121, 122, 123, 124, 125, 126, 127, 128, 129, 130, 131, 132, 133, 134, 135, 136, 137, 138, 139, 140, 141, 142, 143, 144, 145, 146, 147, 148, 149, 150, 151, 152, 153, 154, 155, 156, 157, 158, 159, 160, 161, 162, 163, 164, 165, 166, 167, 168, 169, 170, 171, 172, 173, 174, 175, 176, 177, 178, 179, 180, 181, 182, 183, 184, 185, 186, 187, 188, 189, 190, 191, 192, 193, 194, 195, 196, 197, 198, 199, 200, 201, 202, 203, 204, 205, 206, 207, 208, 209, 210, 211, 212, 213, 214, 215, 216, 217, 218, 219, 220, 221, 222, 223, 224, 225, 226, 227, 228, 229, 230, 231, 232, 233, 234, 235, 236, 237, 238, 239, 240, 241, 242, 243, 244, 245, 246, 247, 248, 249, 250, 251, 252, 253, 254, 255, 256, 257, 258, 259, 260, 261, 262, 263, 264],
      "LargestImagePixelValue": [33052, 32272, 31273, 31340, 31149, 31122, 30718, 31194, 31234, 31160, 31288, 31275, 30630, 30527, 31374, 31014, 30997, 31209, 31469, 31069, 30792, 30978, 30910, 31135, 31108, 30939, 31060, 31656, 31112, 31598, 31441, 31261, 31094, 31192, 31465, 31734, 31391, 31456, 31769, 31721, 31208, 31488, 31514, 31701, 31682, 31008, 31336, 31360, 31429, 31307, 31158, 31738, 31440, 31219, 30756, 30978, 31402, 31606, 31839, 31864, 31333, 31233, 31120, 31453, 31204, 30702, 30960, 31524, 31011, 31069, 30853, 31114, 30957, 31029, 30853, 30750, 31380, 31033, 30894, 31112, 31252, 31269, 31492, 30860, 30590, 30776, 30450, 30276, 30517, 30582, 30827, 30250, 30065, 30936, 31158, 30226, 30009, 30584, 30431, 30922, 30814, 30353, 30110, 30880, 30940, 29985, 30384, 30718, 30902, 30114, 30172, 30105, 30486, 29720, 29689, 30120, 30174, 30393, 30441, 30031, 30688, 30490, 30632, 29836, 30316, 30016, 30620, 30352, 30416, 30787, 30345, 30166, 30855, 31438, 30988, 30953, 31090, 31802, 31163, 31119, 30785, 30698, 31640, 31718, 31088, 30899, 31310, 31201, 31135, 30940, 31103, 31513, 30934, 30096, 31212, 30924, 30962, 31368, 30939, 31183, 31570, 31234, 31073, 30496, 30887, 31414, 31861, 31052, 30636, 30867, 30651, 30654, 30644, 30504, 30996, 30770, 30924, 31063, 31427, 31021, 30535, 31010, 30485, 30349, 31971, 30313, 30535, 30240, 30386, 30343, 30189, 30454, 30402, 30470, 29975, 30536, 31950, 30248, 31952, 31254, 31205, 30596, 30753, 33313, 30464, 30205, 30968, 31972, 30399, 30155, 30827, 30363, 30421, 30260, 29933, 30584, 30433, 30842, 31009, 30479, 30252, 30441, 30614, 30414, 30498, 30736, 30681, 30165, 30587, 30362, 30652, 30233, 32112, 30363, 31039, 30789, 30739, 29732, 31111, 32024, 31212, 31325, 30569, 30373, 30523, 30348, 30485, 30880, 30678, 30482, 30631, 31140, 30862, 31300, 30719, 30071, 30898, 30354, 30409, 30204, 30462, 31064, 31115, 30906],
      "WindowCenter": [9149.0, 9105.0, 9080.0, 9076.0, 9069.0, 9077.0, 9074.0, 9080.0, 9079.0, 9081.0, 9080.0, 9070.0, 9053.0, 9031.0, 9039.0, 9032.0, 9032.0, 9031.0, 9027.0, 9031.0, 9041.0, 9057.0, 9061.0, 9068.0, 9071.0, 9071.0, 9073.0, 9086.0, 9072.0, 9075.0, 9061.0, 9051.0, 9035.0, 9030.0, 9030.0, 9052.0, 9046.0, 9044.0, 9051.0, 9063.0, 9082.0, 9087.0, 9095.0, 9095.0, 9086.0, 9064.0, 9059.0, 9049.0, 9048.0, 9049.0, 9023.0, 9035.0, 9039.0, 9039.0, 9024.0, 9037.0, 9047.0, 9078.0, 9088.0, 9088.0, 9074.0, 9050.0, 9034.0, 9034.0, 9020.0, 9005.0, 9003.0, 9006.0, 8999.0, 9000.0, 9002.0, 9017.0, 9025.0, 9043.0, 9040.0, 9048.0, 9062.0, 9057.0, 9049.0, 9040.0, 9031.0, 9030.0, 9036.0, 9025.0, 9016.0, 9022.0, 9024.0, 9019.0, 9019.0, 9024.0, 9024.0, 9016.0, 9002.0, 9020.0, 9021.0, 9011.0, 9017.0, 9025.0, 9034.0, 9056.0, 9053.0, 9047.0, 9032.0, 9042.0, 9033.0, 9004.0, 9008.0, 9015.0, 9030.0, 9020.0, 9028.0, 9039.0, 9048.0, 9044.0, 9043.0, 9033.0, 9024.0, 9028.0, 9011.0, 9000.0, 9012.0, 9026.0, 9060.0, 9051.0, 9065.0, 9032.0, 9036.0, 9037.0, 9026.0, 9042.0, 9027.0, 9023.0, 9038.0, 9048.0, 9044.0, 9043.0, 9042.0, 9056.0, 9035.0, 9034.0, 9028.0, 9036.0, 9056.0, 9072.0, 9069.0, 9072.0, 9076.0, 9086.0, 9088.0, 9090.0, 9073.0, 9089.0, 9074.0, 9062.0, 9081.0, 9067.0, 9060.0, 9043.0, 9027.0, 9017.0, 9037.0, 9041.0, 9026.0, 9003.0, 9000.0, 9014.0, 9041.0, 9016.0, 9005.0, 9002.0, 8995.0, 8995.0, 8995.0, 8981.0, 8978.0, 8967.0, 8957.0, 8961.0, 8968.0, 8950.0, 8939.0, 8958.0, 8957.0, 8969.0, 9012.0, 8987.0, 8996.0, 8997.0, 8990.0, 8999.0, 9000.0, 9000.0, 9007.0, 8997.0, 8991.0, 8997.0, 9034.0, 9017.0, 9058.0, 9040.0, 9049.0, 9036.0, 9036.0, 9081.0, 9029.0, 9034.0, 9063.0, 9074.0, 9042.0, 9027.0, 9038.0, 9030.0, 9011.0, 9009.0, 8993.0, 8998.0, 8999.0, 9007.0, 9031.0, 9038.0, 9042.0, 9049.0, 9050.0, 9033.0, 9023.0, 9029.0, 9036.0, 9033.0, 9046.0, 9040.0, 9038.0, 9025.0, 9049.0, 9014.0, 9024.0, 9007.0, 9004.0, 8982.0, 8999.0, 9085.0, 9059.0, 9052.0, 9045.0, 9021.0, 9005.0, 8987.0, 8968.0, 8969.0, 8951.0, 8934.0, 8940.0, 8956.0, 8957.0, 8982.0, 8988.0, 8976.0, 9002.0, 8993.0, 9001.0, 8995.0, 9001.0, 9015.0, 9018.0, 9024.0],
      "WindowWidth": [19467.0, 19353.0, 19292.0, 19275.0, 19261.0, 19277.0, 19278.0, 19283.0, 19282.0, 19288.0, 19283.0, 19258.0, 19226.0, 19183.0, 19188.0, 19181.0, 19181.0, 19181.0, 19163.0, 19179.0, 19202.0, 19235.0, 19245.0, 19256.0, 19265.0, 19267.0, 19273.0, 19293.0, 19268.0, 19268.0, 19246.0, 19222.0, 19190.0, 19175.0, 19176.0, 19219.0, 19211.0, 19201.0, 19216.0, 19242.0, 19284.0, 19301.0, 19313.0, 19317.0, 19295.0, 19257.0, 19239.0, 19215.0, 19215.0, 19220.0, 19165.0, 19183.0, 19196.0, 19198.0, 19169.0, 19191.0, 19211.0, 19269.0, 19292.0, 19295.0, 19266.0, 19215.0, 19185.0, 19176.0, 19150.0, 19125.0, 19120.0, 19120.0, 19109.0, 19111.0, 19121.0, 19152.0, 19165.0, 19201.0, 19203.0, 19219.0, 19242.0, 19236.0, 19219.0, 19199.0, 19175.0, 19172.0, 19183.0, 19165.0, 19146.0, 19154.0, 19166.0, 19158.0, 19156.0, 19162.0, 19163.0, 19149.0, 19124.0, 19151.0, 19154.0, 19141.0, 19156.0, 19169.0, 19187.0, 19230.0, 19227.0, 19220.0, 19194.0, 19202.0, 19182.0, 19130.0, 19132.0, 19142.0, 19173.0, 19163.0, 19183.0, 19204.0, 19222.0, 19221.0, 19219.0, 19196.0, 19178.0, 19180.0, 19147.0, 19119.0, 19141.0, 19176.0, 19245.0, 19238.0, 19263.0, 19190.0, 19192.0, 19196.0, 19174.0, 19199.0, 19175.0, 19174.0, 19197.0, 19211.0, 19208.0, 19206.0, 19205.0, 19229.0, 19190.0, 19188.0, 19184.0, 19200.0, 19233.0, 19262.0, 19266.0, 19279.0, 19277.0, 19296.0, 19304.0, 19312.0, 19275.0, 19309.0, 19279.0, 19259.0, 19285.0, 19260.0, 19246.0, 19204.0, 19170.0, 19151.0, 19186.0, 19200.0, 19171.0, 19131.0, 19109.0, 19139.0, 19184.0, 19142.0, 19120.0, 19114.0, 19103.0, 19104.0, 19106.0, 19081.0, 19071.0, 19046.0, 19023.0, 19025.0, 19040.0, 19006.0, 18989.0, 19019.0, 19026.0, 19055.0, 19132.0, 19092.0, 19111.0, 19115.0, 19103.0, 19118.0, 19121.0, 19124.0, 19138.0, 19110.0, 19108.0, 19117.0, 19184.0, 19161.0, 19233.0, 19203.0, 19219.0, 19199.0, 19199.0, 19276.0, 19185.0, 19202.0, 19254.0, 19260.0, 19209.0, 19184.0, 19198.0, 19183.0, 19145.0, 19139.0, 19110.0, 19114.0, 19115.0, 19130.0, 19179.0, 19198.0, 19210.0, 19226.0, 19233.0, 19198.0, 19180.0, 19182.0, 19193.0, 19190.0, 19216.0, 19206.0, 19200.0, 19175.0, 19213.0, 19155.0, 19167.0, 19130.0, 19122.0, 19081.0, 19108.0, 19282.0, 19230.0, 19219.0, 19206.0, 19160.0, 19128.0, 19088.0, 19052.0, 19045.0, 19013.0, 18980.0, 18989.0, 19022.0, 19024.0, 19072.0, 19097.0, 19073.0, 19116.0, 19104.0, 19125.0, 19111.0, 19120.0, 19147.0, 19159.0, 19168.0]
    },
    "slices": {}
  },
  "NumberOfVolumes": 264
}