{
  "AcquisitionMatrixPE": 104,
  "AcquisitionNumber": 1,
  "AcquisitionTime": "10:42:27.457500",
  "BandwidthPerPixelPhaseEncode": 16.578,
  "BaseResolution": 104,
  "BodyPartExamined": "BRAIN",
  "ConsistencyInfo": "N4_VE11C_LATEST_20160120",
  "ConversionSoftware": "dcm2niix",
  "ConversionSoftwareVersion": "v1.0.20190410  GCC6.3.0",
  "DerivedVendorReportedEchoSpacing": 0.000580009,
  "DeviceSerialNumber": "166018",
  "DwellTime": 2.1e-06,
  "EchoTime": 0.037,
  "EchoTrainLength": 104,
  "EffectiveEchoSpacing": 0.000580009,
  "FlipAngle": 68,
  "ImageComments": "Unaliased_MB6_PE3_LB",
  "ImageOrientationPatientDICOM": [0.99899, 0.0441731, -0.00825844, -0.0448397, 0.991993, -0.118064],
  "ImageType": [
    "ORIGINAL",
    "PRIMARY",
    "M",
    "MB",
    "ND",
    "MOSAIC"
],
  "ImagingFrequency": 123.191,
  "InPlanePhaseEncodingDirectionDICOM": "COL",
  "InstitutionAddress": "Washington_Place_6_NYC_NYC_US_10003",
  "InstitutionName": "NYU_Center_for_Brain_Imaging",
  "InstitutionalDepartmentName": "Department",
  "MRAcquisitionType": "2D",
  "MagneticFieldStrength": 3,
  "Manufacturer": "Siemens",
  "ManufacturersModelName": "Prisma",
  "Modality": "MR",
  "MultibandAccelerationFactor": 6,
  "PartialFourier": 1,
  "PatientPosition": "HFS",
  "PercentPhaseFOV": 100,
  "PhaseEncodingDirection": "j",
  "PhaseEncodingSteps": 104,
  "PhaseResolution": 1,
  "PixelBandwidth": 2290,
  "ProcedureStepDescription": "Investigators_Winawer",
  "ProtocolName": "task-sfprescaled_cmrr_mbepi_s6_2mm_66sl_PA_TR1.0",
  "PulseSequenceDetails": "%CustomerSeq%_cmrr_mbep2d_bold",
  "ReceiveCoilActiveElements": "HC1-7",
  "ReceiveCoilName": "HeadNeck_64",
  "ReconMatrixPE": 104,
  "RepetitionTime": 1,
  "SAR": 0.0851353,
  "ScanOptions": "FS",
  "ScanningSequence": "EP",
  "SequenceName": "epfid2d1_104",
  "SequenceVariant": "SK_SS",
  "SeriesDescription": "task-sfprescaled_cmrr_mbepi_s6_2mm_66sl_PA_TR1.0",
  "SeriesNumber": 12,
  "ShimSetting": [265, -12635, -8448, 454, 41, -196, 58, -2],
  "SliceThickness": 2,
  "SliceTiming": [0, 0.535, 0.09, 0.625, 0.18, 0.7125, 0.2675, 0.8025, 0.3575, 0.8925, 0.445, 0, 0.535, 0.09, 0.625, 0.18, 0.7125, 0.2675, 0.8025, 0.3575, 0.8925, 0.445, 0, 0.535, 0.09, 0.625, 0.18, 0.7125, 0.2675, 0.8025, 0.3575, 0.8925, 0.445, 0, 0.535, 0.09, 0.625, 0.18, 0.7125, 0.2675, 0.8025, 0.3575, 0.8925, 0.445, 0, 0.535, 0.09, 0.625, 0.18, 0.7125, 0.2675, 0.8025, 0.3575, 0.8925, 0.445, 0, 0.535, 0.09, 0.625, 0.18, 0.7125, 0.2675, 0.8025, 0.3575, 0.8925, 0.445],
  "SoftwareVersions": "syngo_MR_E11",
  "SpacingBetweenSlices": 2,
  "StationName": "AWP166018",
  "TaskName": "sfprescaled",
  "TotalReadoutTime": 0.0597409,
  "TxRefAmp": 241.817,
  "WipMemBlock": "40e01c15-de40-4781-af55-74e21a0ded8a||Sequence: R016 ve11c/master r/8780670; Nov 27 2017 15:05:12 by eja",
  "dcmmeta_affine": [
    [-1.9979795217514038, -0.08967939764261246, -0.005954112391918898, 114.80790710449219],
    [-0.08834613114595413, 1.9839861392974854, -0.23663045465946198, -70.72012329101562],
    [-0.016516877338290215, 0.23612840473651886, 1.9859431982040405, -61.84959030151367],
    [0.0, 0.0, 0.0, 1.0]
],
  "dcmmeta_reorient_transform": [
    [0.0, -1.0, 0.0, 103.0],
    [1.0, 0.0, 0.0, 0.0],
    [0.0, 0.0, 1.0, 0.0],
    [0.0, 0.0, 0.0, 1.0]
],
  "dcmmeta_shape": [104, 104, 66, 264],
  "dcmmeta_slice_dim": 2,
  "dcmmeta_version": 0.6,
  "global": {
    "const": {
      "AccessionNumber": "jtu8gsdq",
  "NumberOfVolumes": 264,
      "AcquisitionMatrix": [104, 0, 0, 104],
      "AngioFlag": "N",
      "BitsAllocated": 16,
      "BitsStored": 16,
      "BodyPartExamined": "BRAIN",
      "Columns": 936,
      "EchoNumbers": 1,
      "EchoTime": 37.0,
      "EchoTrainLength": 104,
      "FlipAngle": 68.0,
      "HighBit": 15,
      "ImageOrientationPatient": [0.99898975894172, 0.04417306557246, -0.0082584385629, -0.0448396996635, 0.99199306765871, -0.1180641988545],
      "ImagePositionPatient": [-899.42377471357, -995.7206699396, 67.572068365146],
      "ImageType": [
        "ORIGINAL",
        "PRIMARY",
        "M",
        "MB",
        "ND",
        "MOSAIC"
],
      "ImagedNucleus": "1H",
      "ImagingFrequency": 123.191083,
      "InPlanePhaseEncodingDirection": "COL",
      "MRAcquisitionType": "2D",
      "MagneticFieldStrength": 3.0,
      "Manufacturer": "SIEMENS",
      "ManufacturerModelName": "Prisma",
      "Modality": "MR",
      "NumberOfAverages": 1.0,
      "NumberOfPhaseEncodingSteps": 104,
      "PercentPhaseFieldOfView": 100.0,
      "PercentSampling": 100.0,
      "PerformedProcedureStepStartTime": "102049.080000",
      "PhotometricInterpretation": "MONOCHROME2",
      "PixelBandwidth": 2290.0,
      "PixelRepresentation": 0,
      "PixelSpacing": [2.0, 2.0],
      "ProtocolName": "task-sfprescaled_cmrr_mbepi_s6_2mm_66sl_PA_TR1.0",
      "RepetitionTime": 1000.0,
      "Rows": 936,
      "SAR": 0.0851353274562,
      "SamplesPerPixel": 1,
      "ScanOptions": "FS",
      "ScanningSequence": "EP",
      "SequenceName": "epfid2d1_104",
      "SequenceVariant": [
        "SK",
        "SS"
],
      "SeriesDescription": "task-sfprescaled_cmrr_mbepi_s6_2mm_66sl_PA_TR1.0",
      "SeriesNumber": 12,
      "SeriesTime": "104328.221000",
      "SliceLocation": -53.389410300267,
      "SliceThickness": 2.0,
      "SmallestImagePixelValue": 0,
      "SoftwareVersions": "syngo MR E11",
      "SpacingBetweenSlices": 1.999999945276,
      "SpecificCharacterSet": "ISO_IR 100",
      "StudyID": "1",
      "StudyTime": "102049.028000",
      "TransmitCoilName": "Body",
      "VariableFlipAngleFlag": "N",
      "WindowCenterWidthExplanation": "Algo1",
      "dBdt": 0.0},
    "slices": {}
  },
  "time": {
    "samples": {
      "AcquisitionNumber": [1, 2, 3, 4, 5, 6, 7, 8, 9, 10, 11, 12, 13, 14, 15, 16, 17, 18, 19, 20, 21, 22, 23, 24, 25, 26, 27, 28, 29, 30, 31, 32, 33, 34, 35, 36, 37, 38, 39, 40, 41, 42, 43, 44, 45, 46, 47, 48, 49, 50, 51, 52, 53, 54, 55, 56, 57, 58, 59, 60, 61, 62, 63, 64, 65, 66, 67, 68, 69, 70, 71, 72, 73, 74, 75, 76, 77, 78, 79, 80, 81, 82, 83, 84, 85, 86, 87, 88, 89, 90, 91, 92, 93, 94, 95, 96, 97, 98, 99, 100, 101, 102, 103, 104, 105, 106, 107, 108, 109, 110, 111, 112, 113, 114, 115, 116, 117, 118, 119, 120, 121, 122, 123, 124, 125, 126, 127, 128, 129, 130, 131, 132, 133, 134, 135, 136, 137, 138, 139, 140, 141, 142, 143, 144, 145, 146, 147, 148, 149, 150, 151, 152, 153, 154, 155, 156, 157, 158, 159, 160, 161, 162, 163, 164, 165, 166, 167, 168, 169, 170, 171, 172, 173, 174, 175, 176, 177, 178, 179, 180, 181, 182, 183, 184, 185, 186, 187, 188, 189, 190, 191, 192, 193, 194, 195, 196, 197, 198, 199, 200, 201, 202, 203, 204, 205, 206, 207, 208, 209, 210, 211, 212, 213, 214, 215, 216, 217, 218, 219, 220, 221, 222, 223, 224, 225, 226, 227, 228, 229, 230, 231, 232, 233, 234, 235, 236, 237, 238, 239, 240, 241, 242, 243, 244, 245, 246, 247, 248, 249, 250, 251, 252, 253, 254, 255, 256, 257, 258, 259, 260, 261, 262, 263, 264],
      "AcquisitionTime": ["104227.457500", "104228.457500", "104229.457500", "104230.457500", "104231.457500", "104232.457500", "104233.457500", "104234.457500", "104235.457500", "104236.457500", "104237.457500", "104238.457500", "104239.457500", "104240.457500", "104241.457500", "104242.457500", "104243.457500", "104244.457500", "104245.457500", "104246.457500", "104247.457500", "104248.457500", "104249.457500", "104250.457500", "104251.457500", "104252.457500", "104253.457500", "104254.457500", "104255.457500", "104256.457500", "104257.457500", "104258.457500", "104259.457500", "104300.457500", "104301.457500", "104302.457500", "104303.457500", "104304.457500", "104305.457500", "104306.457500", "104307.457500", "104308.457500", "104309.457500", "104310.457500", "104311.457500", "104312.457500", "104313.457500", "104314.457500", "104315.457500", "104316.457500", "104317.457500", "104318.457500", "104319.457500", "104320.457500", "104321.457500", "104322.457500", "104323.457500", "104324.457500", "104325.457500", "104326.457500", "104327.457500", "104328.457500", "104329.457500", "104330.457500", "104331.457500", "104332.457500", "104333.457500", "104334.457500", "104335.457500", "104336.457500", "104337.457500", "104338.457500", "104339.457500", "104340.457500", "104341.457500", "104342.457500", "104343.457500", "104344.457500", "104345.457500", "104346.457500", "104347.457500", "104348.457500", "104349.457500", "104350.457500", "104351.457500", "104352.457500", "104353.457500", "104354.457500", "104355.457500", "104356.457500", "104357.457500", "104358.457500", "104359.457500", "104400.457500", "104401.457500", "104402.457500", "104403.457500", "104404.457500", "104405.457500", "104406.457500", "104407.457500", "104408.457500", "104409.457500", "104410.457500", "104411.457500", "104412.457500", "104413.457500", "104414.457500", "104415.457500", "104416.457500", "104417.457500", "104418.457500", "104419.457500", "104420.457500", "104421.457500", "104422.457500", "104423.457500", "104424.457500", "104425.457500", "104426.457500", "104427.457500", "104428.457500", "104429.457500", "104430.457500", "104431.457500", "104432.457500", "104433.457500", "104434.457500", "104435.457500", "104436.457500", "104437.457500", "104438.457500", "104439.457500", "104440.457500", "104441.457500", "104442.457500", "104443.457500", "104444.457500", "104445.457500", "104446.457500", "104447.457500", "104448.457500", "104449.457500", "104450.457500", "104451.457500", "104452.457500", "104453.457500", "104454.457500", "104455.457500", "104456.457500", "104457.457500", "104458.457500", "104459.457500", "104500.457500", "104501.457500", "104502.457500", "104503.457500", "104504.457500", "104505.457500", "104506.457500", "104507.457500", "104508.457500", "104509.457500", "104510.457500", "104511.457500", "104512.457500", "104513.457500", "104514.457500", "104515.457500", "104516.457500", "104517.457500", "104518.457500", "104519.457500", "104520.457500", "104521.457500", "104522.457500", "104523.457500", "104524.457500", "104525.457500", "104526.457500", "104527.457500", "104528.457500", "104529.457500", "104530.457500", "104531.457500", "104532.457500", "104533.457500", "104534.457500", "104535.457500", "104536.457500", "104537.457500", "104538.457500", "104539.457500", "104540.457500", "104541.457500", "104542.457500", "104543.457500", "104544.457500", "104545.457500", "104546.457500", "104547.457500", "104548.457500", "104549.457500", "104550.457500", "104551.457500", "104552.457500", "104553.457500", "104554.457500", "104555.457500", "104556.457500", "104557.457500", "104558.457500", "104559.457500", "104600.457500", "104601.457500", "104602.457500", "104603.457500", "104604.457500", "104605.457500", "104606.457500", "104607.457500", "104608.457500", "104609.457500", "104610.457500", "104611.457500", "104612.457500", "104613.457500", "104614.457500", "104615.457500", "104616.457500", "104617.457500", "104618.457500", "104619.457500", "104620.457500", "104621.457500", "104622.457500", "104623.457500", "104624.457500", "104625.457500", "104626.457500", "104627.457500", "104628.457500", "104629.457500", "104630.457500", "104631.457500", "104632.457500", "104633.457500", "104634.457500", "104635.457500", "104636.457500", "104637.457500", "104638.457500", "104639.457500", "104640.457500", "104641.457500", "104642.457500", "104643.457500", "104644.457500", "104645.457500", "104646.457500", "104647.457500", "104648.457500", "104649.457500", "104650.457500"],
      "ContentTime": ["104328.223000", "104328.227000", "104328.229000", "104328.232000", "104328.235000", "104328.238000", "104328.248000", "104333.223000", "104333.226000", "104333.229000", "104333.232000", "104333.235000", "104333.240000", "104333.247000", "104338.223000", "104338.226000", "104338.229000", "104338.232000", "104338.235000", "104338.237000", "104338.240000", "104343.223000", "104343.226000", "104343.229000", "104343.239000", "104343.241000", "104343.244000", "104343.247000", "104348.223000", "104348.226000", "104348.229000", "104348.232000", "104348.235000", "104348.237000", "104348.240000", "104353.223000", "104353.226000", "104353.229000", "104353.232000", "104353.235000", "104353.237000", "104353.240000", "104358.223000", "104358.226000", "104358.230000", "104358.233000", "104358.235000", "104358.238000", "104358.254000", "104403.222000", "104403.225000", "104403.228000", "104403.230000", "104403.233000", "104403.236000", "104403.239000", "104403.242000", "104408.223000", "104408.226000", "104408.229000", "104408.232000", "104408.234000", "104408.237000", "104408.240000", "104413.223000", "104413.226000", "104413.229000", "104413.232000", "104413.235000", "104413.238000", "104413.241000", "104418.223000", "104418.226000", "104418.229000", "104418.232000", "104418.235000", "104418.238000", "104418.240000", "104423.223000", "104423.226000", "104423.229000", "104423.232000", "104423.235000", "104423.237000", "104423.240000", "104428.223000", "104428.226000", "104428.229000", "104428.232000", "104428.235000", "104428.238000", "104428.241000", "104433.223000", "104433.226000", "104433.229000", "104433.232000", "104433.235000", "104433.237000", "104433.240000", "104438.222000", "104438.225000", "104438.228000", "104438.231000", "104438.234000", "104438.241000", "104438.244000", "104443.223000", "104443.226000", "104443.229000", "104443.232000", "104443.235000", "104443.238000", "104443.241000", "104448.223000", "104448.226000", "104448.229000", "104448.232000", "104448.235000", "104448.237000", "104448.240000", "104453.223000", "104453.226000", "104453.229000", "104453.232000", "104453.235000", "104453.237000", "104453.240000", "104458.223000", "104458.226000", "104458.229000", "104458.232000", "104458.235000", "104458.237000", "104458.240000", "104503.223000", "104503.226000", "104503.229000", "104503.232000", "104503.235000", "104503.238000", "104503.240000", "104508.223000", "104508.226000", "104508.229000", "104508.232000", "104508.235000", "104508.237000", "104508.240000", "104513.222000", "104513.225000", "104513.228000", "104513.231000", "104513.234000", "104513.237000", "104513.239000", "104518.223000", "104518.226000", "104518.229000", "104518.232000", "104518.235000", "104518.238000", "104518.241000", "104523.223000", "104523.226000", "104523.229000", "104523.231000", "104523.234000", "104523.237000", "104523.240000", "104523.243000", "104528.223000", "104528.226000", "104528.229000", "104528.232000", "104528.235000", "104528.237000", "104528.240000", "104533.223000", "104533.226000", "104533.229000", "104533.232000", "104533.234000", "104533.237000", "104533.240000", "104538.223000", "104538.226000", "104538.229000", "104538.232000", "104538.235000", "104543.223000", "104543.226000", "104543.229000", "104543.232000", "104543.234000", "104548.222000", "104548.225000", "104548.228000", "104548.231000", "104548.234000", "104553.223000", "104553.226000", "104553.229000", "104553.232000", "104553.234000", "104558.223000", "104558.226000", "104558.229000", "104558.232000", "104558.235000", "104603.223000", "104603.226000", "104603.229000", "104603.232000", "104603.235000", "104608.223000", "104608.226000", "104608.229000", "104608.232000", "104608.235000", "104613.223000", "104613.226000", "104613.229000", "104613.232000", "104613.235000", "104618.223000", "104618.226000", "104618.229000", "104618.232000", "104618.235000", "104623.222000", "104623.225000", "104623.228000", "104623.231000", "104623.234000", "104628.223000", "104628.226000", "104628.229000", "104628.232000", "104628.235000", "104633.223000", "104633.226000", "104633.229000", "104633.232000", "104633.235000", "104638.223000", "104638.226000", "104638.229000", "104638.242000", "104638.245000", "104643.223000", "104643.226000", "104643.229000", "104643.232000", "104643.235000", "104648.223000", "104648.226000", "104648.229000", "104648.232000", "104648.235000", "104652.595000", "104652.599000", "104652.602000", "104652.605000", "104652.608000"],
      "InstanceCreationTime": ["104328.223000", "104328.227000", "104328.229000", "104328.232000", "104328.235000", "104328.238000", "104328.248000", "104333.223000", "104333.226000", "104333.229000", "104333.232000", "104333.235000", "104333.240000", "104333.247000", "104338.223000", "104338.226000", "104338.229000", "104338.232000", "104338.235000", "104338.237000", "104338.240000", "104343.223000", "104343.226000", "104343.229000", "104343.239000", "104343.241000", "104343.244000", "104343.247000", "104348.223000", "104348.226000", "104348.229000", "104348.232000", "104348.235000", "104348.237000", "104348.240000", "104353.223000", "104353.226000", "104353.229000", "104353.232000", "104353.235000", "104353.237000", "104353.240000", "104358.223000", "104358.226000", "104358.230000", "104358.233000", "104358.235000", "104358.238000", "104358.254000", "104403.222000", "104403.225000", "104403.228000", "104403.230000", "104403.233000", "104403.236000", "104403.239000", "104403.242000", "104408.223000", "104408.226000", "104408.229000", "104408.232000", "104408.234000", "104408.237000", "104408.240000", "104413.223000", "104413.226000", "104413.229000", "104413.232000", "104413.235000", "104413.238000", "104413.241000", "104418.223000", "104418.226000", "104418.229000", "104418.232000", "104418.235000", "104418.238000", "104418.240000", "104423.223000", "104423.226000", "104423.229000", "104423.232000", "104423.235000", "104423.237000", "104423.240000", "104428.223000", "104428.226000", "104428.229000", "104428.232000", "104428.235000", "104428.238000", "104428.241000", "104433.223000", "104433.226000", "104433.229000", "104433.232000", "104433.235000", "104433.237000", "104433.240000", "104438.222000", "104438.225000", "104438.228000", "104438.231000", "104438.234000", "104438.241000", "104438.244000", "104443.223000", "104443.226000", "104443.229000", "104443.232000", "104443.235000", "104443.238000", "104443.241000", "104448.223000", "104448.226000", "104448.229000", "104448.232000", "104448.235000", "104448.237000", "104448.240000", "104453.223000", "104453.226000", "104453.229000", "104453.232000", "104453.235000", "104453.237000", "104453.240000", "104458.223000", "104458.226000", "104458.229000", "104458.232000", "104458.235000", "104458.237000", "104458.240000", "104503.223000", "104503.226000", "104503.229000", "104503.232000", "104503.235000", "104503.238000", "104503.240000", "104508.223000", "104508.226000", "104508.229000", "104508.232000", "104508.235000", "104508.237000", "104508.240000", "104513.222000", "104513.225000", "104513.228000", "104513.231000", "104513.234000", "104513.237000", "104513.239000", "104518.223000", "104518.226000", "104518.229000", "104518.232000", "104518.235000", "104518.238000", "104518.241000", "104523.223000", "104523.226000", "104523.229000", "104523.231000", "104523.234000", "104523.237000", "104523.240000", "104523.243000", "104528.223000", "104528.226000", "104528.229000", "104528.232000", "104528.235000", "104528.237000", "104528.240000", "104533.223000", "104533.226000", "104533.229000", "104533.232000", "104533.234000", "104533.237000", "104533.240000", "104538.223000", "104538.226000", "104538.229000", "104538.232000", "104538.235000", "104543.223000", "104543.226000", "104543.229000", "104543.232000", "104543.234000", "104548.222000", "104548.225000", "104548.228000", "104548.231000", "104548.234000", "104553.223000", "104553.226000", "104553.229000", "104553.232000", "104553.234000", "104558.223000", "104558.226000", "104558.229000", "104558.232000", "104558.235000", "104603.223000", "104603.226000", "104603.229000", "104603.232000", "104603.235000", "104608.223000", "104608.226000", "104608.229000", "104608.232000", "104608.235000", "104613.223000", "104613.226000", "104613.229000", "104613.232000", "104613.235000", "104618.223000", "104618.226000", "104618.229000", "104618.232000", "104618.235000", "104623.222000", "104623.225000", "104623.228000", "104623.231000", "104623.234000", "104628.223000", "104628.226000", "104628.229000", "104628.232000", "104628.235000", "104633.223000", "104633.226000", "104633.229000", "104633.232000", "104633.235000", "104638.223000", "104638.226000", "104638.229000", "104638.242000", "104638.245000", "104643.223000", "104643.226000", "104643.229000", "104643.232000", "104643.235000", "104648.223000", "104648.226000", "104648.229000", "104648.232000", "104648.235000", "104652.595000", "104652.599000", "104652.602000", "104652.605000", "104652.608000"],
      "InstanceNumber": [1, 2, 3, 4, 5, 6, 7, 8, 9, 10, 11, 12, 13, 14, 15, 16, 17, 18, 19, 20, 21, 22, 23, 24, 25, 26, 27, 28, 29, 30, 31, 32, 33, 34, 35, 36, 37, 38, 39, 40, 41, 42, 43, 44, 45, 46, 47, 48, 49, 50, 51, 52, 53, 54, 55, 56, 57, 58, 59, 60, 61, 62, 63, 64, 65, 66, 67, 68, 69, 70, 71, 72, 73, 74, 75, 76, 77, 78, 79, 80, 81, 82, 83, 84, 85, 86, 87, 88, 89, 90, 91, 92, 93, 94, 95, 96, 97, 98, 99, 100, 101, 102, 103, 104, 105, 106, 107, 108, 109, 110, 111, 112, 113, 114, 115, 116, 117, 118, 119, 120, 121, 122, 123, 124, 125, 126, 127, 128, 129, 130, 131, 132, 133, 134, 135, 136, 137, 138, 139, 140, 141, 142, 143, 144, 145, 146, 147, 148, 149, 150, 151, 152, 153, 154, 155, 156, 157, 158, 159, 160, 161, 162, 163, 164, 165, 166, 167, 168, 169, 170, 171, 172, 173, 174, 175, 176, 177, 178, 179, 180, 181, 182, 183, 184, 185, 186, 187, 188, 189, 190, 191, 192, 193, 194, 195, 196, 197, 198, 199, 200, 201, 202, 203, 204, 205, 206, 207, 208, 209, 210, 211, 212, 213, 214, 215, 216, 217, 218, 219, 220, 221, 222, 223, 224, 225, 226, 227, 228, 229, 230, 231, 232, 233, 234, 235, 236, 237, 238, 239, 240, 241, 242, 243, 244, 245, 246, 247, 248, 249, 250, 251, 252, 253, 254, 255, 256, 257, 258, 259, 260, 261, 262, 263, 264],
      "LargestImagePixelValue": [33190, 32947, 31570, 31537, 31749, 30692, 31253, 30698, 30801, 30963, 30812, 30842, 30576, 31284, 30828, 30941, 30981, 30507, 30605, 30401, 29974, 30397, 30621, 30219, 30683, 30564, 30310, 30349, 30189, 30418, 30517, 30073, 30461, 30157, 29840, 29913, 30234, 30502, 30568, 30229, 30222, 30246, 30193, 30607, 29980, 30223, 30653, 30160, 30474, 30648, 30354, 30403, 30467, 30526, 29798, 30173, 30067, 30144, 30168, 30021, 29983, 30153, 30084, 30180, 30250, 30261, 30763, 30453, 30514, 30439, 30310, 30578, 30345, 30435, 31209, 30496, 30541, 30750, 30542, 30842, 31215, 31014, 31010, 30898, 30727, 30631, 30531, 30491, 30712, 31398, 30353, 30421, 30144, 30878, 30464, 30910, 30968, 29983, 31338, 30657, 30505, 31010, 31246, 30828, 30392, 31326, 30725, 30919, 31274, 30571, 31213, 31120, 31526, 30740, 31066, 31372, 31236, 31609, 31173, 31317, 31294, 31399, 31274, 30712, 31534, 30731, 31783, 31880, 30963, 31638, 30853, 31181, 31799, 31680, 31415, 31039, 30866, 31285, 31199, 31487, 31287, 30993, 31172, 31526, 31287, 31016, 31136, 31634, 31620, 31178, 31169, 30584, 31258, 30842, 31417, 31689, 31607, 31162, 31304, 30724, 31048, 30823, 31479, 31579, 31468, 31650, 31802, 30988, 31288, 31202, 31072, 31193, 31328, 31580, 31528, 31868, 31278, 31183, 31145, 31330, 31333, 31247, 31402, 31379, 31780, 31412, 31328, 32139, 31746, 31135, 31134, 31380, 31379, 31425, 31999, 31457, 31106, 30863, 31546, 31609, 32060, 31026, 31481, 31214, 31517, 31877, 31647, 32133, 31262, 32123, 31687, 31461, 32020, 31769, 31437, 31674, 31337, 31264, 31576, 32235, 32835, 32161, 32277, 32308, 32530, 32425, 31799, 32607, 32837, 32126, 32398, 32080, 32283, 32033, 32509, 31997, 32156, 32187, 31590, 32378, 32669, 32259, 32233, 32290, 32139, 32806, 31975, 32421, 32522, 32402, 31985, 32563, 32452, 32303, 32538, 32828, 32409, 33309, 32794, 32758, 32429, 32803, 32338, 32956],
      "WindowCenter": [9184.0, 9153.0, 9116.0, 9105.0, 9094.0, 9073.0, 9078.0, 9063.0, 9056.0, 9062.0, 9071.0, 9069.0, 9068.0, 9102.0, 9108.0, 9109.0, 9092.0, 9068.0, 9073.0, 9075.0, 9077.0, 9093.0, 9109.0, 9107.0, 9110.0, 9100.0, 9087.0, 9085.0, 9080.0, 9077.0, 9084.0, 9086.0, 9093.0, 9088.0, 9089.0, 9073.0, 9078.0, 9076.0, 9084.0, 9080.0, 9071.0, 9074.0, 9062.0, 9074.0, 9061.0, 9068.0, 9083.0, 9078.0, 9084.0, 9091.0, 9085.0, 9084.0, 9085.0, 9093.0, 9089.0, 9089.0, 9096.0, 9089.0, 9090.0, 9096.0, 9087.0, 9084.0, 9084.0, 9086.0, 9092.0, 9094.0, 9107.0, 9096.0, 9103.0, 9110.0, 9096.0, 9101.0, 9102.0, 9093.0, 9110.0, 9094.0, 9093.0, 9093.0, 9094.0, 9100.0, 9105.0, 9098.0, 9097.0, 9096.0, 9090.0, 9082.0, 9084.0, 9093.0, 9098.0, 9103.0, 9091.0, 9091.0, 9093.0, 9099.0, 9092.0, 9097.0, 9098.0, 9086.0, 9118.0, 9109.0, 9108.0, 9114.0, 9120.0, 9101.0, 9094.0, 9112.0, 9107.0, 9113.0, 9113.0, 9107.0, 9112.0, 9097.0, 9093.0, 9089.0, 9097.0, 9118.0, 9113.0, 9119.0, 9104.0, 9095.0, 9094.0, 9084.0, 9091.0, 9089.0, 9116.0, 9107.0, 9112.0, 9108.0, 9088.0, 9099.0, 9079.0, 9085.0, 9100.0, 9099.0, 9100.0, 9089.0, 9089.0, 9102.0, 9097.0, 9095.0, 9094.0, 9089.0, 9096.0, 9111.0, 9111.0, 9113.0, 9108.0, 9116.0, 9103.0, 9081.0, 9069.0, 9080.0, 9111.0, 9109.0, 9114.0, 9119.0, 9101.0, 9087.0, 9094.0, 9088.0, 9104.0, 9107.0, 9114.0, 9127.0, 9114.0, 9113.0, 9104.0, 9106.0, 9115.0, 9121.0, 9105.0, 9106.0, 9107.0, 9121.0, 9122.0, 9127.0, 9114.0, 9099.0, 9099.0, 9098.0, 9096.0, 9096.0, 9095.0, 9096.0, 9103.0, 9098.0, 9112.0, 9128.0, 9122.0, 9110.0, 9109.0, 9106.0, 9097.0, 9096.0, 9102.0, 9094.0, 9103.0, 9100.0, 9128.0, 9126.0, 9119.0, 9098.0, 9104.0, 9097.0, 9089.0, 9109.0, 9110.0, 9118.0, 9106.0, 9125.0, 9119.0, 9114.0, 9111.0, 9104.0, 9096.0, 9097.0, 9103.0, 9113.0, 9129.0, 9142.0, 9148.0, 9128.0, 9125.0, 9125.0, 9123.0, 9116.0, 9111.0, 9130.0, 9122.0, 9109.0, 9116.0, 9111.0, 9116.0, 9111.0, 9123.0, 9111.0, 9119.0, 9126.0, 9122.0, 9129.0, 9134.0, 9127.0, 9127.0, 9126.0, 9128.0, 9141.0, 9129.0, 9130.0, 9135.0, 9127.0, 9121.0, 9124.0, 9127.0, 9128.0, 9134.0, 9143.0, 9145.0, 9148.0, 9135.0, 9128.0, 9121.0, 9140.0, 9138.0, 9150.0],
      "WindowWidth": [19474.0, 19389.0, 19310.0, 19279.0, 19250.0, 19209.0, 19214.0, 19186.0, 19173.0, 19184.0, 19202.0, 19201.0, 19198.0, 19267.0, 19286.0, 19287.0, 19250.0, 19204.0, 19209.0, 19218.0, 19225.0, 19257.0, 19293.0, 19294.0, 19296.0, 19273.0, 19248.0, 19244.0, 19237.0, 19227.0, 19241.0, 19245.0, 19258.0, 19251.0, 19252.0, 19219.0, 19221.0, 19215.0, 19236.0, 19231.0, 19213.0, 19214.0, 19193.0, 19215.0, 19189.0, 19204.0, 19235.0, 19226.0, 19238.0, 19248.0, 19241.0, 19237.0, 19240.0, 19257.0, 19252.0, 19252.0, 19266.0, 19253.0, 19257.0, 19266.0, 19245.0, 19236.0, 19237.0, 19243.0, 19254.0, 19258.0, 19283.0, 19266.0, 19279.0, 19292.0, 19265.0, 19272.0, 19273.0, 19253.0, 19280.0, 19257.0, 19256.0, 19255.0, 19256.0, 19266.0, 19271.0, 19261.0, 19255.0, 19252.0, 19243.0, 19227.0, 19236.0, 19256.0, 19263.0, 19269.0, 19245.0, 19246.0, 19253.0, 19265.0, 19251.0, 19257.0, 19260.0, 19239.0, 19298.0, 19286.0, 19287.0, 19295.0, 19302.0, 19270.0, 19257.0, 19288.0, 19277.0, 19287.0, 19287.0, 19277.0, 19282.0, 19252.0, 19240.0, 19235.0, 19254.0, 19295.0, 19290.0, 19297.0, 19269.0, 19250.0, 19245.0, 19222.0, 19236.0, 19240.0, 19291.0, 19280.0, 19284.0, 19270.0, 19234.0, 19251.0, 19213.0, 19226.0, 19254.0, 19253.0, 19256.0, 19237.0, 19237.0, 19261.0, 19252.0, 19248.0, 19245.0, 19237.0, 19252.0, 19282.0, 19283.0, 19288.0, 19279.0, 19289.0, 19260.0, 19219.0, 19192.0, 19219.0, 19282.0, 19285.0, 19291.0, 19294.0, 19255.0, 19233.0, 19243.0, 19237.0, 19271.0, 19280.0, 19292.0, 19315.0, 19292.0, 19287.0, 19269.0, 19275.0, 19296.0, 19302.0, 19270.0, 19273.0, 19278.0, 19303.0, 19305.0, 19313.0, 19291.0, 19259.0, 19260.0, 19255.0, 19250.0, 19251.0, 19247.0, 19251.0, 19263.0, 19256.0, 19285.0, 19315.0, 19306.0, 19286.0, 19280.0, 19272.0, 19251.0, 19250.0, 19257.0, 19245.0, 19264.0, 19263.0, 19315.0, 19310.0, 19293.0, 19257.0, 19267.0, 19252.0, 19240.0, 19273.0, 19279.0, 19293.0, 19272.0, 19304.0, 19296.0, 19286.0, 19278.0, 19262.0, 19248.0, 19251.0, 19264.0, 19288.0, 19317.0, 19343.0, 19349.0, 19310.0, 19304.0, 19303.0, 19297.0, 19283.0, 19277.0, 19312.0, 19296.0, 19273.0, 19283.0, 19274.0, 19284.0, 19274.0, 19294.0, 19277.0, 19293.0, 19307.0, 19306.0, 19319.0, 19322.0, 19312.0, 19312.0, 19308.0, 19314.0, 19337.0, 19318.0, 19321.0, 19326.0, 19308.0, 19298.0, 19301.0, 19309.0, 19312.0, 19324.0, 19343.0, 19349.0, 19348.0, 19322.0, 19311.0, 19296.0, 19331.0, 19336.0, 19356.0]
    },
    "slices": {}
  }
}