{
  "AcquisitionMatrixPE": 104,
  "AcquisitionNumber": 1,
  "AcquisitionTime": "11:26:0.565000",
  "BandwidthPerPixelPhaseEncode": 16.578,
  "BaseResolution": 104,
  "BodyPartExamined": "BRAIN",
  "ConsistencyInfo": "N4_VE11C_LATEST_20160120",
  "ConversionSoftware": "dcm2niix",
  "ConversionSoftwareVersion": "v1.0.20190410  GCC6.3.0",
  "DerivedVendorReportedEchoSpacing": 0.000580009,
  "DeviceSerialNumber": "166018",
  "DwellTime": 2.1e-06,
  "EchoTime": 0.037,
  "EchoTrainLength": 104,
  "EffectiveEchoSpacing": 0.000580009,
  "FlipAngle": 68,
  "ImageComments": "Unaliased_MB6_PE3_LB",
  "ImageOrientationPatientDICOM": [0.99899, 0.0441731, -0.00825844, -0.0448397, 0.991993, -0.118064],
  "ImageType": [
    "ORIGINAL",
    "PRIMARY",
    "M",
    "MB",
    "ND",
    "MOSAIC"
],
  "ImagingFrequency": 123.191,
  "InPlanePhaseEncodingDirectionDICOM": "COL",
  "InstitutionAddress": "Washington_Place_6_NYC_NYC_US_10003",
  "InstitutionName": "NYU_Center_for_Brain_Imaging",
  "InstitutionalDepartmentName": "Department",
  "MRAcquisitionType": "2D",
  "MagneticFieldStrength": 3,
  "Manufacturer": "Siemens",
  "ManufacturersModelName": "Prisma",
  "Modality": "MR",
  "MultibandAccelerationFactor": 6,
  "PartialFourier": 1,
  "PatientPosition": "HFS",
  "PercentPhaseFOV": 100,
  "PhaseEncodingDirection": "j",
  "PhaseEncodingSteps": 104,
  "PhaseResolution": 1,
  "PixelBandwidth": 2290,
  "ProcedureStepDescription": "Investigators_Winawer",
  "ProtocolName": "task-sfprescaled_cmrr_mbepi_s6_2mm_66sl_PA_TR1.0",
  "PulseSequenceDetails": "%CustomerSeq%_cmrr_mbep2d_bold",
  "ReceiveCoilActiveElements": "HC1-7",
  "ReceiveCoilName": "HeadNeck_64",
  "ReconMatrixPE": 104,
  "RepetitionTime": 1,
  "SAR": 0.0851353,
  "ScanOptions": "FS",
  "ScanningSequence": "EP",
  "SequenceName": "epfid2d1_104",
  "SequenceVariant": "SK_SS",
  "SeriesDescription": "task-sfprescaled_cmrr_mbepi_s6_2mm_66sl_PA_TR1.0",
  "SeriesNumber": 30,
  "ShimSetting": [265, -12635, -8448, 454, 41, -196, 58, -2],
  "SliceThickness": 2,
  "SliceTiming": [0, 0.535, 0.09, 0.625, 0.1775, 0.7125, 0.2675, 0.8025, 0.3575, 0.89, 0.445, 0, 0.535, 0.09, 0.625, 0.1775, 0.7125, 0.2675, 0.8025, 0.3575, 0.89, 0.445, 0, 0.535, 0.09, 0.625, 0.1775, 0.7125, 0.2675, 0.8025, 0.3575, 0.89, 0.445, 0, 0.535, 0.09, 0.625, 0.1775, 0.7125, 0.2675, 0.8025, 0.3575, 0.89, 0.445, 0, 0.535, 0.09, 0.625, 0.1775, 0.7125, 0.2675, 0.8025, 0.3575, 0.89, 0.445, 0, 0.535, 0.09, 0.625, 0.1775, 0.7125, 0.2675, 0.8025, 0.3575, 0.89, 0.445],
  "SoftwareVersions": "syngo_MR_E11",
  "SpacingBetweenSlices": 2,
  "StationName": "AWP166018",
  "TaskName": "sfprescaled",
  "TotalReadoutTime": 0.0597409,
  "TxRefAmp": 241.817,
  "WipMemBlock": "40e01c15-de40-4781-af55-74e21a0ded8a||Sequence: R016 ve11c/master r/8780670; Nov 27 2017 15:05:12 by eja",
  "dcmmeta_affine": [
    [-1.9979795217514038, -0.08967939764261246, -0.005954112391918898, 114.80790710449219],
    [-0.08834613114595413, 1.9839861392974854, -0.23663045465946198, -70.72012329101562],
    [-0.016516877338290215, 0.23612840473651886, 1.9859431982040405, -61.84959030151367],
    [0.0, 0.0, 0.0, 1.0]
],
  "dcmmeta_reorient_transform": [
    [0.0, -1.0, 0.0, 103.0],
    [1.0, 0.0, 0.0, 0.0],
    [0.0, 0.0, 1.0, 0.0],
    [0.0, 0.0, 0.0, 1.0]
],
  "dcmmeta_shape": [104, 104, 66, 264],
  "dcmmeta_slice_dim": 2,
  "dcmmeta_version": 0.6,
  "global": {
    "const": {
      "AccessionNumber": "jtu8gsdq",
  "NumberOfVolumes": 264,
      "AcquisitionMatrix": [104, 0, 0, 104],
      "AngioFlag": "N",
      "BitsAllocated": 16,
      "BitsStored": 16,
      "BodyPartExamined": "BRAIN",
      "Columns": 936,
      "EchoNumbers": 1,
      "EchoTime": 37.0,
      "EchoTrainLength": 104,
      "FlipAngle": 68.0,
      "HighBit": 15,
      "ImageOrientationPatient": [0.99898975894172, 0.04417306557246, -0.0082584385629, -0.0448396996635, 0.99199306765871, -0.1180641988545],
      "ImagePositionPatient": [-899.42377471357, -995.7206699396, 67.572068365146],
      "ImageType": [
        "ORIGINAL",
        "PRIMARY",
        "M",
        "MB",
        "ND",
        "MOSAIC"
],
      "ImagedNucleus": "1H",
      "ImagingFrequency": 123.191083,
      "InPlanePhaseEncodingDirection": "COL",
      "MRAcquisitionType": "2D",
      "MagneticFieldStrength": 3.0,
      "Manufacturer": "SIEMENS",
      "ManufacturerModelName": "Prisma",
      "Modality": "MR",
      "NumberOfAverages": 1.0,
      "NumberOfPhaseEncodingSteps": 104,
      "PercentPhaseFieldOfView": 100.0,
      "PercentSampling": 100.0,
      "PerformedProcedureStepStartTime": "102049.080000",
      "PhotometricInterpretation": "MONOCHROME2",
      "PixelBandwidth": 2290.0,
      "PixelRepresentation": 0,
      "PixelSpacing": [2.0, 2.0],
      "ProtocolName": "task-sfprescaled_cmrr_mbepi_s6_2mm_66sl_PA_TR1.0",
      "RepetitionTime": 1000.0,
      "Rows": 936,
      "SAR": 0.0851353274562,
      "SamplesPerPixel": 1,
      "ScanOptions": "FS",
      "ScanningSequence": "EP",
      "SequenceName": "epfid2d1_104",
      "SequenceVariant": [
        "SK",
        "SS"
],
      "SeriesDescription": "task-sfprescaled_cmrr_mbepi_s6_2mm_66sl_PA_TR1.0",
      "SeriesNumber": 30,
      "SeriesTime": "112656.016000",
      "SliceLocation": -53.389410300267,
      "SliceThickness": 2.0,
      "SmallestImagePixelValue": 0,
      "SoftwareVersions": "syngo MR E11",
      "SpacingBetweenSlices": 1.999999945276,
      "SpecificCharacterSet": "ISO_IR 100",
      "StudyID": "1",
      "StudyTime": "102049.028000",
      "TransmitCoilName": "Body",
      "VariableFlipAngleFlag": "N",
      "WindowCenterWidthExplanation": "Algo1",
      "dBdt": 0.0},
    "slices": {}
  },
  "time": {
    "samples": {
      "AcquisitionNumber": [1, 2, 3, 4, 5, 6, 7, 8, 9, 10, 11, 12, 13, 14, 15, 16, 17, 18, 19, 20, 21, 22, 23, 24, 25, 26, 27, 28, 29, 30, 31, 32, 33, 34, 35, 36, 37, 38, 39, 40, 41, 42, 43, 44, 45, 46, 47, 48, 49, 50, 51, 52, 53, 54, 55, 56, 57, 58, 59, 60, 61, 62, 63, 64, 65, 66, 67, 68, 69, 70, 71, 72, 73, 74, 75, 76, 77, 78, 79, 80, 81, 82, 83, 84, 85, 86, 87, 88, 89, 90, 91, 92, 93, 94, 95, 96, 97, 98, 99, 100, 101, 102, 103, 104, 105, 106, 107, 108, 109, 110, 111, 112, 113, 114, 115, 116, 117, 118, 119, 120, 121, 122, 123, 124, 125, 126, 127, 128, 129, 130, 131, 132, 133, 134, 135, 136, 137, 138, 139, 140, 141, 142, 143, 144, 145, 146, 147, 148, 149, 150, 151, 152, 153, 154, 155, 156, 157, 158, 159, 160, 161, 162, 163, 164, 165, 166, 167, 168, 169, 170, 171, 172, 173, 174, 175, 176, 177, 178, 179, 180, 181, 182, 183, 184, 185, 186, 187, 188, 189, 190, 191, 192, 193, 194, 195, 196, 197, 198, 199, 200, 201, 202, 203, 204, 205, 206, 207, 208, 209, 210, 211, 212, 213, 214, 215, 216, 217, 218, 219, 220, 221, 222, 223, 224, 225, 226, 227, 228, 229, 230, 231, 232, 233, 234, 235, 236, 237, 238, 239, 240, 241, 242, 243, 244, 245, 246, 247, 248, 249, 250, 251, 252, 253, 254, 255, 256, 257, 258, 259, 260, 261, 262, 263, 264],
      "AcquisitionTime": ["112600.565000", "112601.565000", "112602.565000", "112603.565000", "112604.565000", "112605.565000", "112606.565000", "112607.565000", "112608.565000", "112609.565000", "112610.565000", "112611.565000", "112612.565000", "112613.565000", "112614.565000", "112615.565000", "112616.565000", "112617.565000", "112618.565000", "112619.565000", "112620.565000", "112621.565000", "112622.565000", "112623.565000", "112624.565000", "112625.565000", "112626.565000", "112627.565000", "112628.565000", "112629.565000", "112630.565000", "112631.565000", "112632.565000", "112633.565000", "112634.565000", "112635.565000", "112636.565000", "112637.565000", "112638.565000", "112639.565000", "112640.565000", "112641.565000", "112642.565000", "112643.565000", "112644.565000", "112645.565000", "112646.565000", "112647.565000", "112648.565000", "112649.565000", "112650.565000", "112651.565000", "112652.565000", "112653.565000", "112654.565000", "112655.565000", "112656.565000", "112657.565000", "112658.565000", "112659.565000", "112700.565000", "112701.565000", "112702.565000", "112703.565000", "112704.565000", "112705.565000", "112706.565000", "112707.565000", "112708.565000", "112709.565000", "112710.565000", "112711.565000", "112712.565000", "112713.565000", "112714.565000", "112715.565000", "112716.565000", "112717.565000", "112718.565000", "112719.565000", "112720.565000", "112721.565000", "112722.565000", "112723.565000", "112724.565000", "112725.565000", "112726.565000", "112727.565000", "112728.565000", "112729.565000", "112730.565000", "112731.565000", "112732.565000", "112733.565000", "112734.565000", "112735.565000", "112736.565000", "112737.565000", "112738.565000", "112739.565000", "112740.565000", "112741.565000", "112742.565000", "112743.565000", "112744.565000", "112745.565000", "112746.565000", "112747.565000", "112748.565000", "112749.565000", "112750.565000", "112751.565000", "112752.565000", "112753.565000", "112754.565000", "112755.565000", "112756.565000", "112757.565000", "112758.565000", "112759.565000", "112800.565000", "112801.565000", "112802.565000", "112803.565000", "112804.565000", "112805.565000", "112806.565000", "112807.565000", "112808.565000", "112809.565000", "112810.565000", "112811.565000", "112812.565000", "112813.565000", "112814.565000", "112815.565000", "112816.565000", "112817.565000", "112818.565000", "112819.565000", "112820.565000", "112821.565000", "112822.565000", "112823.565000", "112824.565000", "112825.565000", "112826.565000", "112827.565000", "112828.565000", "112829.565000", "112830.565000", "112831.565000", "112832.565000", "112833.565000", "112834.565000", "112835.565000", "112836.565000", "112837.565000", "112838.565000", "112839.565000", "112840.565000", "112841.565000", "112842.565000", "112843.565000", "112844.565000", "112845.565000", "112846.565000", "112847.565000", "112848.565000", "112849.565000", "112850.565000", "112851.565000", "112852.565000", "112853.565000", "112854.565000", "112855.565000", "112856.565000", "112857.565000", "112858.565000", "112859.565000", "112900.565000", "112901.565000", "112902.565000", "112903.565000", "112904.565000", "112905.565000", "112906.565000", "112907.565000", "112908.565000", "112909.565000", "112910.565000", "112911.565000", "112912.565000", "112913.565000", "112914.565000", "112915.565000", "112916.565000", "112917.565000", "112918.565000", "112919.565000", "112920.565000", "112921.565000", "112922.565000", "112923.565000", "112924.565000", "112925.565000", "112926.565000", "112927.565000", "112928.565000", "112929.565000", "112930.565000", "112931.565000", "112932.565000", "112933.565000", "112934.565000", "112935.565000", "112936.565000", "112937.565000", "112938.565000", "112939.565000", "112940.565000", "112941.565000", "112942.565000", "112943.565000", "112944.565000", "112945.565000", "112946.565000", "112947.565000", "112948.565000", "112949.565000", "112950.565000", "112951.565000", "112952.565000", "112953.565000", "112954.565000", "112955.565000", "112956.565000", "112957.565000", "112958.565000", "112959.565000", "113000.565000", "113001.565000", "113002.565000", "113003.565000", "113004.565000", "113005.565000", "113006.565000", "113007.565000", "113008.565000", "113009.565000", "113010.565000", "113011.565000", "113012.565000", "113013.565000", "113014.565000", "113015.565000", "113016.565000", "113017.565000", "113018.565000", "113019.565000", "113020.565000", "113021.565000", "113022.565000", "113023.565000"],
      "ContentTime": ["112656.018000", "112656.022000", "112656.025000", "112656.065000", "112656.068000", "112656.071000", "112700.980000", "112700.983000", "112700.988000", "112700.991000", "112700.994000", "112700.997000", "112701.001000", "112701.003000", "112705.980000", "112705.983000", "112705.986000", "112705.988000", "112705.991000", "112705.994000", "112705.997000", "112710.980000", "112710.983000", "112710.986000", "112710.988000", "112710.991000", "112710.994000", "112710.997000", "112715.981000", "112715.984000", "112715.987000", "112715.989000", "112715.992000", "112715.995000", "112715.998000", "112720.980000", "112720.988000", "112720.991000", "112720.994000", "112720.997000", "112721.000000", "112721.003000", "112725.980000", "112725.983000", "112725.986000", "112725.988000", "112725.991000", "112725.994000", "112725.997000", "112730.981000", "112730.984000", "112730.987000", "112730.990000", "112730.993000", "112730.996000", "112730.998000", "112735.980000", "112735.983000", "112735.986000", "112735.988000", "112735.992000", "112735.994000", "112735.997000", "112740.980000", "112740.983000", "112740.986000", "112740.989000", "112740.992000", "112740.994000", "112740.997000", "112745.980000", "112745.983000", "112745.986000", "112745.989000", "112745.991000", "112745.994000", "112745.997000", "112750.981000", "112750.984000", "112750.987000", "112750.989000", "112750.992000", "112750.995000", "112750.998000", "112755.980000", "112755.983000", "112755.986000", "112755.989000", "112755.991000", "112755.994000", "112755.997000", "112800.980000", "112800.983000", "112800.986000", "112800.989000", "112800.991000", "112800.994000", "112800.997000", "112805.981000", "112805.984000", "112805.987000", "112805.990000", "112805.992000", "112805.995000", "112805.999000", "112810.980000", "112810.983000", "112810.986000", "112810.989000", "112810.991000", "112811.003000", "112811.006000", "112815.980000", "112815.983000", "112815.986000", "112815.989000", "112815.992000", "112815.995000", "112815.998000", "112820.980000", "112820.983000", "112820.986000", "112820.989000", "112820.991000", "112820.994000", "112820.997000", "112825.981000", "112825.984000", "112825.987000", "112825.989000", "112825.992000", "112825.995000", "112825.998000", "112826.002000", "112830.980000", "112830.983000", "112830.986000", "112830.989000", "112830.991000", "112830.994000", "112835.980000", "112835.983000", "112835.986000", "112835.989000", "112835.992000", "112835.995000", "112835.998000", "112840.981000", "112840.984000", "112840.987000", "112840.990000", "112840.992000", "112840.995000", "112840.998000", "112841.001000", "112845.980000", "112845.983000", "112845.986000", "112845.989000", "112845.992000", "112845.995000", "112845.998000", "112850.980000", "112850.983000", "112850.986000", "112850.989000", "112850.992000", "112850.994000", "112850.997000", "112855.980000", "112855.983000", "112855.986000", "112855.989000", "112855.992000", "112900.981000", "112900.984000", "112900.987000", "112900.990000", "112900.992000", "112905.980000", "112905.983000", "112905.986000", "112905.989000", "112905.992000", "112910.980000", "112910.983000", "112910.986000", "112910.989000", "112910.991000", "112915.981000", "112915.984000", "112915.987000", "112915.990000", "112915.993000", "112920.980000", "112920.983000", "112920.986000", "112920.989000", "112920.992000", "112925.980000", "112925.983000", "112925.986000", "112925.989000", "112925.992000", "112930.980000", "112930.989000", "112930.992000", "112930.995000", "112930.997000", "112935.981000", "112935.984000", "112935.987000", "112935.990000", "112935.993000", "112940.980000", "112940.983000", "112940.986000", "112940.989000", "112940.992000", "112945.980000", "112945.983000", "112945.986000", "112945.989000", "112945.992000", "112950.981000", "112950.984000", "112950.987000", "112950.990000", "112950.993000", "112955.980000", "112955.983000", "112955.986000", "112955.989000", "112955.992000", "113000.980000", "113000.983000", "113000.986000", "113000.989000", "113000.992000", "113005.980000", "113005.983000", "113005.986000", "113005.989000", "113005.992000", "113010.981000", "113010.984000", "113010.987000", "113010.990000", "113010.993000", "113015.980000", "113015.983000", "113015.986000", "113015.989000", "113015.992000", "113020.980000", "113020.983000", "113020.986000", "113020.989000", "113020.992000", "113025.354000", "113025.357000", "113025.361000", "113025.365000", "113025.368000"],
      "InstanceCreationTime": ["112656.018000", "112656.022000", "112656.025000", "112656.065000", "112656.068000", "112656.071000", "112700.980000", "112700.983000", "112700.988000", "112700.991000", "112700.994000", "112700.997000", "112701.001000", "112701.003000", "112705.980000", "112705.983000", "112705.986000", "112705.988000", "112705.991000", "112705.994000", "112705.997000", "112710.980000", "112710.983000", "112710.986000", "112710.988000", "112710.991000", "112710.994000", "112710.997000", "112715.981000", "112715.984000", "112715.987000", "112715.989000", "112715.992000", "112715.995000", "112715.998000", "112720.980000", "112720.988000", "112720.991000", "112720.994000", "112720.997000", "112721.000000", "112721.003000", "112725.980000", "112725.983000", "112725.986000", "112725.988000", "112725.991000", "112725.994000", "112725.997000", "112730.981000", "112730.984000", "112730.987000", "112730.990000", "112730.993000", "112730.996000", "112730.998000", "112735.980000", "112735.983000", "112735.986000", "112735.988000", "112735.992000", "112735.994000", "112735.997000", "112740.980000", "112740.983000", "112740.986000", "112740.989000", "112740.992000", "112740.994000", "112740.997000", "112745.980000", "112745.983000", "112745.986000", "112745.989000", "112745.991000", "112745.994000", "112745.997000", "112750.981000", "112750.984000", "112750.987000", "112750.989000", "112750.992000", "112750.995000", "112750.998000", "112755.980000", "112755.983000", "112755.986000", "112755.989000", "112755.991000", "112755.994000", "112755.997000", "112800.980000", "112800.983000", "112800.986000", "112800.989000", "112800.991000", "112800.994000", "112800.997000", "112805.981000", "112805.984000", "112805.987000", "112805.990000", "112805.992000", "112805.995000", "112805.999000", "112810.980000", "112810.983000", "112810.986000", "112810.989000", "112810.991000", "112811.003000", "112811.006000", "112815.980000", "112815.983000", "112815.986000", "112815.989000", "112815.992000", "112815.995000", "112815.998000", "112820.980000", "112820.983000", "112820.986000", "112820.989000", "112820.991000", "112820.994000", "112820.997000", "112825.981000", "112825.984000", "112825.987000", "112825.989000", "112825.992000", "112825.995000", "112825.998000", "112826.002000", "112830.980000", "112830.983000", "112830.986000", "112830.989000", "112830.991000", "112830.994000", "112835.980000", "112835.983000", "112835.986000", "112835.989000", "112835.992000", "112835.995000", "112835.998000", "112840.981000", "112840.984000", "112840.987000", "112840.990000", "112840.992000", "112840.995000", "112840.998000", "112841.001000", "112845.980000", "112845.983000", "112845.986000", "112845.989000", "112845.992000", "112845.995000", "112845.998000", "112850.980000", "112850.983000", "112850.986000", "112850.989000", "112850.992000", "112850.994000", "112850.997000", "112855.980000", "112855.983000", "112855.986000", "112855.989000", "112855.992000", "112900.981000", "112900.984000", "112900.987000", "112900.990000", "112900.992000", "112905.980000", "112905.983000", "112905.986000", "112905.989000", "112905.992000", "112910.980000", "112910.983000", "112910.986000", "112910.989000", "112910.991000", "112915.981000", "112915.984000", "112915.987000", "112915.990000", "112915.993000", "112920.980000", "112920.983000", "112920.986000", "112920.989000", "112920.992000", "112925.980000", "112925.983000", "112925.986000", "112925.989000", "112925.992000", "112930.980000", "112930.989000", "112930.992000", "112930.995000", "112930.997000", "112935.981000", "112935.984000", "112935.987000", "112935.990000", "112935.993000", "112940.980000", "112940.983000", "112940.986000", "112940.989000", "112940.992000", "112945.980000", "112945.983000", "112945.986000", "112945.989000", "112945.992000", "112950.981000", "112950.984000", "112950.987000", "112950.990000", "112950.993000", "112955.980000", "112955.983000", "112955.986000", "112955.989000", "112955.992000", "113000.980000", "113000.983000", "113000.986000", "113000.989000", "113000.992000", "113005.980000", "113005.983000", "113005.986000", "113005.989000", "113005.992000", "113010.981000", "113010.984000", "113010.987000", "113010.990000", "113010.993000", "113015.980000", "113015.983000", "113015.986000", "113015.989000", "113015.992000", "113020.980000", "113020.983000", "113020.986000", "113020.989000", "113020.992000", "113025.354000", "113025.357000", "113025.361000", "113025.365000", "113025.368000"],
      "InstanceNumber": [1, 2, 3, 4, 5, 6, 7, 8, 9, 10, 11, 12, 13, 14, 15, 16, 17, 18, 19, 20, 21, 22, 23, 24, 25, 26, 27, 28, 29, 30, 31, 32, 33, 34, 35, 36, 37, 38, 39, 40, 41, 42, 43, 44, 45, 46, 47, 48, 49, 50, 51, 52, 53, 54, 55, 56, 57, 58, 59, 60, 61, 62, 63, 64, 65, 66, 67, 68, 69, 70, 71, 72, 73, 74, 75, 76, 77, 78, 79, 80, 81, 82, 83, 84, 85, 86, 87, 88, 89, 90, 91, 92, 93, 94, 95, 96, 97, 98, 99, 100, 101, 102, 103, 104, 105, 106, 107, 108, 109, 110, 111, 112, 113, 114, 115, 116, 117, 118, 119, 120, 121, 122, 123, 124, 125, 126, 127, 128, 129, 130, 131, 132, 133, 134, 135, 136, 137, 138, 139, 140, 141, 142, 143, 144, 145, 146, 147, 148, 149, 150, 151, 152, 153, 154, 155, 156, 157, 158, 159, 160, 161, 162, 163, 164, 165, 166, 167, 168, 169, 170, 171, 172, 173, 174, 175, 176, 177, 178, 179, 180, 181, 182, 183, 184, 185, 186, 187, 188, 189, 190, 191, 192, 193, 194, 195, 196, 197, 198, 199, 200, 201, 202, 203, 204, 205, 206, 207, 208, 209, 210, 211, 212, 213, 214, 215, 216, 217, 218, 219, 220, 221, 222, 223, 224, 225, 226, 227, 228, 229, 230, 231, 232, 233, 234, 235, 236, 237, 238, 239, 240, 241, 242, 243, 244, 245, 246, 247, 248, 249, 250, 251, 252, 253, 254, 255, 256, 257, 258, 259, 260, 261, 262, 263, 264],
      "LargestImagePixelValue": [32100, 31080, 30844, 30466, 30455, 30634, 31249, 30265, 30099, 30293, 29543, 30185, 30345, 29776, 30446, 30739, 30538, 30762, 30980, 30554, 30295, 30384, 30250, 30776, 30563, 30108, 30530, 30296, 29923, 30402, 30133, 30463, 30388, 30451, 30024, 30572, 30229, 30327, 30384, 29882, 30019, 29866, 30161, 30049, 30380, 30158, 29910, 30205, 29990, 30027, 29894, 29987, 30102, 30104, 30131, 30059, 29707, 29527, 29372, 29601, 29850, 30439, 29902, 30613, 29729, 30006, 30045, 29910, 29996, 30590, 30435, 30247, 30112, 29923, 30016, 29908, 29726, 29935, 29417, 29700, 29843, 29554, 29940, 29357, 29243, 29812, 29515, 30244, 29570, 29361, 29512, 29332, 29432, 29705, 29494, 29234, 29762, 29185, 29251, 30007, 29707, 29761, 29769, 29637, 29625, 29323, 29397, 29328, 29455, 29186, 29485, 29300, 29770, 29271, 29231, 29389, 29435, 29092, 29698, 29228, 29414, 29140, 29361, 29361, 29666, 29252, 29327, 29662, 29469, 29424, 29141, 29232, 29422, 29000, 29489, 29284, 29385, 29446, 29171, 29516, 29093, 29179, 29624, 29561, 29347, 29205, 29403, 29595, 29088, 28970, 29598, 29635, 29662, 29616, 29309, 29118, 29310, 29234, 29514, 29596, 29329, 29378, 29526, 29364, 29332, 29263, 29369, 29156, 29123, 29234, 29807, 29500, 29940, 29375, 29262, 29255, 28937, 28979, 29002, 29231, 29202, 29147, 29013, 29333, 29423, 29374, 29050, 29289, 29049, 29177, 29209, 29569, 29042, 28774, 29205, 29057, 28851, 29223, 28956, 28859, 29378, 28937, 29180, 28996, 29132, 29396, 29115, 29104, 29570, 29098, 28968, 29475, 29052, 29369, 29345, 29085, 29520, 28952, 28789, 29103, 28879, 28890, 29207, 28861, 29301, 29109, 29156, 28631, 29039, 29388, 29027, 28713, 29607, 29193, 29413, 29043, 29122, 29137, 29529, 29118, 29372, 28987, 28753, 28871, 29387, 28511, 28975, 28836, 29187, 28896, 28926, 28650, 29081, 28771, 29094, 28671, 28934, 29353, 28800, 29056, 29186, 28825, 29142, 29162],
      "WindowCenter": [9107.0, 9063.0, 9026.0, 8999.0, 8989.0, 9000.0, 9022.0, 9032.0, 9035.0, 9041.0, 9012.0, 9000.0, 8988.0, 8965.0, 8976.0, 8990.0, 8984.0, 8991.0, 8998.0, 8994.0, 8994.0, 8993.0, 8993.0, 9000.0, 9000.0, 8996.0, 9003.0, 9004.0, 9006.0, 9012.0, 9007.0, 9018.0, 9012.0, 9006.0, 9006.0, 9019.0, 9013.0, 9005.0, 9003.0, 9005.0, 9006.0, 8999.0, 8996.0, 8988.0, 8994.0, 8994.0, 8982.0, 8987.0, 8987.0, 8991.0, 8988.0, 8996.0, 8995.0, 8996.0, 8997.0, 9003.0, 8998.0, 8990.0, 8982.0, 8980.0, 8971.0, 8984.0, 8978.0, 8988.0, 8977.0, 8984.0, 8976.0, 8971.0, 8984.0, 8989.0, 8993.0, 9001.0, 8994.0, 8996.0, 9003.0, 9005.0, 8998.0, 8987.0, 8964.0, 8954.0, 8951.0, 8960.0, 8967.0, 8969.0, 8973.0, 8988.0, 8990.0, 9007.0, 8981.0, 8974.0, 8972.0, 8965.0, 8971.0, 8977.0, 8972.0, 8965.0, 8978.0, 8966.0, 8964.0, 8984.0, 8979.0, 8990.0, 8997.0, 9006.0, 8992.0, 8981.0, 8973.0, 8973.0, 8971.0, 8973.0, 8972.0, 8978.0, 8988.0, 8985.0, 8986.0, 8991.0, 8983.0, 8975.0, 8973.0, 8972.0, 8972.0, 8966.0, 8979.0, 8990.0, 8999.0, 8992.0, 8984.0, 8974.0, 8971.0, 8964.0, 8972.0, 8974.0, 8979.0, 8975.0, 8989.0, 8989.0, 8991.0, 8997.0, 8994.0, 9008.0, 9001.0, 8993.0, 8996.0, 8981.0, 8974.0, 8967.0, 8972.0, 8975.0, 8974.0, 8967.0, 8964.0, 8967.0, 8976.0, 8978.0, 8979.0, 8982.0, 8982.0, 8984.0, 8989.0, 8982.0, 8980.0, 8981.0, 8981.0, 8973.0, 8967.0, 8959.0, 8964.0, 8959.0, 8965.0, 8973.0, 8977.0, 8971.0, 8977.0, 8962.0, 8956.0, 8956.0, 8955.0, 8964.0, 8974.0, 8986.0, 8995.0, 8995.0, 8988.0, 8985.0, 8973.0, 8973.0, 8966.0, 8963.0, 8964.0, 8958.0, 8966.0, 8970.0, 8965.0, 8959.0, 8966.0, 8966.0, 8967.0, 8974.0, 8977.0, 8993.0, 9001.0, 8987.0, 8985.0, 8968.0, 8966.0, 8963.0, 8957.0, 8957.0, 8963.0, 8955.0, 8963.0, 8970.0, 8962.0, 8962.0, 8962.0, 8958.0, 8979.0, 8968.0, 8977.0, 8986.0, 8995.0, 8996.0, 8986.0, 8977.0, 8982.0, 8973.0, 8965.0, 8958.0, 8965.0, 8980.0, 8973.0, 8970.0, 8981.0, 8975.0, 8990.0, 8984.0, 8977.0, 8968.0, 8965.0, 8965.0, 8956.0, 8950.0, 8942.0, 8951.0, 8964.0, 8944.0, 8958.0, 8959.0, 8966.0, 8967.0, 8967.0, 8968.0, 8974.0, 8978.0, 8994.0, 8996.0, 8988.0, 8991.0, 8970.0, 8968.0, 8972.0, 8969.0, 8975.0, 8975.0],
      "WindowWidth": [19314.0, 19206.0, 19114.0, 19054.0, 19031.0, 19045.0, 19087.0, 19120.0, 19128.0, 19137.0, 19080.0, 19050.0, 19022.0, 18978.0, 18993.0, 19020.0, 19011.0, 19022.0, 19034.0, 19035.0, 19035.0, 19030.0, 19035.0, 19044.0, 19046.0, 19042.0, 19056.0, 19058.0, 19064.0, 19074.0, 19069.0, 19085.0, 19075.0, 19065.0, 19063.0, 19088.0, 19082.0, 19063.0, 19058.0, 19065.0, 19066.0, 19053.0, 19044.0, 19027.0, 19036.0, 19038.0, 19018.0, 19023.0, 19020.0, 19025.0, 19025.0, 19039.0, 19037.0, 19044.0, 19045.0, 19056.0, 19048.0, 19032.0, 19012.0, 19008.0, 18990.0, 19011.0, 19005.0, 19015.0, 18999.0, 19014.0, 18998.0, 18990.0, 19012.0, 19017.0, 19031.0, 19048.0, 19035.0, 19040.0, 19053.0, 19060.0, 19050.0, 19022.0, 18977.0, 18952.0, 18944.0, 18965.0, 18977.0, 18988.0, 19000.0, 19026.0, 19034.0, 19058.0, 19012.0, 18999.0, 18992.0, 18980.0, 18990.0, 18998.0, 18991.0, 18979.0, 19003.0, 18983.0, 18978.0, 19012.0, 19006.0, 19032.0, 19046.0, 19064.0, 19037.0, 19011.0, 18995.0, 18996.0, 18991.0, 18997.0, 18994.0, 19003.0, 19024.0, 19024.0, 19028.0, 19033.0, 19017.0, 19001.0, 18996.0, 18993.0, 18990.0, 18983.0, 19006.0, 19031.0, 19052.0, 19039.0, 19021.0, 18999.0, 18990.0, 18975.0, 18995.0, 19001.0, 19009.0, 19004.0, 19028.0, 19030.0, 19038.0, 19047.0, 19047.0, 19074.0, 19060.0, 19041.0, 19038.0, 19010.0, 18999.0, 18985.0, 18994.0, 19001.0, 18998.0, 18985.0, 18976.0, 18976.0, 18995.0, 19002.0, 19008.0, 19018.0, 19017.0, 19022.0, 19027.0, 19013.0, 19008.0, 19008.0, 19009.0, 18995.0, 18983.0, 18969.0, 18975.0, 18968.0, 18981.0, 18996.0, 18999.0, 18990.0, 18998.0, 18970.0, 18963.0, 18962.0, 18959.0, 18977.0, 18999.0, 19028.0, 19046.0, 19049.0, 19037.0, 19025.0, 18997.0, 18995.0, 18983.0, 18975.0, 18978.0, 18967.0, 18985.0, 18989.0, 18981.0, 18972.0, 18981.0, 18985.0, 18986.0, 18998.0, 19007.0, 19039.0, 19056.0, 19029.0, 19023.0, 18988.0, 18980.0, 18972.0, 18965.0, 18966.0, 18972.0, 18957.0, 18972.0, 18983.0, 18970.0, 18966.0, 18969.0, 18965.0, 19005.0, 18989.0, 19009.0, 19026.0, 19048.0, 19047.0, 19028.0, 19010.0, 19012.0, 18995.0, 18978.0, 18966.0, 18981.0, 19008.0, 18995.0, 18994.0, 19009.0, 19003.0, 19027.0, 19020.0, 19006.0, 18986.0, 18978.0, 18977.0, 18960.0, 18949.0, 18935.0, 18952.0, 18974.0, 18942.0, 18967.0, 18970.0, 18980.0, 18983.0, 18983.0, 18987.0, 18994.0, 19010.0, 19042.0, 19048.0, 19033.0, 19030.0, 18993.0, 18985.0, 18992.0, 18991.0, 19002.0, 19003.0]
    },
    "slices": {}
  }
}