{
  "AcquisitionMatrixPE": 104,
  "AcquisitionNumber": 1,
  "AcquisitionTime": "10:56:45.500000",
  "BandwidthPerPixelPhaseEncode": 16.578,
  "BaseResolution": 104,
  "BodyPartExamined": "BRAIN",
  "ConsistencyInfo": "N4_VE11C_LATEST_20160120",
  "ConversionSoftware": "dcm2niix",
  "ConversionSoftwareVersion": "v1.0.20190410  GCC6.3.0",
  "DerivedVendorReportedEchoSpacing": 0.000580009,
  "DeviceSerialNumber": "166018",
  "DwellTime": 2.1e-06,
  "EchoTime": 0.037,
  "EchoTrainLength": 104,
  "EffectiveEchoSpacing": 0.000580009,
  "FlipAngle": 68,
  "ImageComments": "Unaliased_MB6_PE3_LB",
  "ImageOrientationPatientDICOM": [0.99899, 0.0441731, -0.00825844, -0.0448397, 0.991993, -0.118064],
  "ImageType": [
    "ORIGINAL",
    "PRIMARY",
    "M",
    "MB",
    "ND",
    "MOSAIC"
],
  "ImagingFrequency": 123.191,
  "InPlanePhaseEncodingDirectionDICOM": "COL",
  "InstitutionAddress": "Washington_Place_6_NYC_NYC_US_10003",
  "InstitutionName": "NYU_Center_for_Brain_Imaging",
  "InstitutionalDepartmentName": "Department",
  "MRAcquisitionType": "2D",
  "MagneticFieldStrength": 3,
  "Manufacturer": "Siemens",
  "ManufacturersModelName": "Prisma",
  "Modality": "MR",
  "MultibandAccelerationFactor": 6,
  "PartialFourier": 1,
  "PatientPosition": "HFS",
  "PercentPhaseFOV": 100,
  "PhaseEncodingDirection": "j",
  "PhaseEncodingSteps": 104,
  "PhaseResolution": 1,
  "PixelBandwidth": 2290,
  "ProcedureStepDescription": "Investigators_Winawer",
  "ProtocolName": "task-sfprescaled_cmrr_mbepi_s6_2mm_66sl_PA_TR1.0",
  "PulseSequenceDetails": "%CustomerSeq%_cmrr_mbep2d_bold",
  "ReceiveCoilActiveElements": "HC1-7",
  "ReceiveCoilName": "HeadNeck_64",
  "ReconMatrixPE": 104,
  "RepetitionTime": 1,
  "SAR": 0.0851353,
  "ScanOptions": "FS",
  "ScanningSequence": "EP",
  "SequenceName": "epfid2d1_104",
  "SequenceVariant": "SK_SS",
  "SeriesDescription": "task-sfprescaled_cmrr_mbepi_s6_2mm_66sl_PA_TR1.0",
  "SeriesNumber": 18,
  "ShimSetting": [265, -12635, -8448, 454, 41, -196, 58, -2],
  "SliceThickness": 2,
  "SliceTiming": [0, 0.535, 0.09, 0.6225, 0.1775, 0.7125, 0.2675, 0.8025, 0.355, 0.89, 0.445, 0, 0.535, 0.09, 0.6225, 0.1775, 0.7125, 0.2675, 0.8025, 0.355, 0.89, 0.445, 0, 0.535, 0.09, 0.6225, 0.1775, 0.7125, 0.2675, 0.8025, 0.355, 0.89, 0.445, 0, 0.535, 0.09, 0.6225, 0.1775, 0.7125, 0.2675, 0.8025, 0.355, 0.89, 0.445, 0, 0.535, 0.09, 0.6225, 0.1775, 0.7125, 0.2675, 0.8025, 0.355, 0.89, 0.445, 0, 0.535, 0.09, 0.6225, 0.1775, 0.7125, 0.2675, 0.8025, 0.355, 0.89, 0.445],
  "SoftwareVersions": "syngo_MR_E11",
  "SpacingBetweenSlices": 2,
  "StationName": "AWP166018",
  "TaskName": "sfprescaled",
  "TotalReadoutTime": 0.0597409,
  "TxRefAmp": 241.817,
  "WipMemBlock": "40e01c15-de40-4781-af55-74e21a0ded8a||Sequence: R016 ve11c/master r/8780670; Nov 27 2017 15:05:12 by eja",
  "dcmmeta_affine": [
    [-1.9979795217514038, -0.08967939764261246, -0.005954112391918898, 114.80790710449219],
    [-0.08834613114595413, 1.9839861392974854, -0.23663045465946198, -70.72012329101562],
    [-0.016516877338290215, 0.23612840473651886, 1.9859431982040405, -61.84959030151367],
    [0.0, 0.0, 0.0, 1.0]
],
  "dcmmeta_reorient_transform": [
    [0.0, -1.0, 0.0, 103.0],
    [1.0, 0.0, 0.0, 0.0],
    [0.0, 0.0, 1.0, 0.0],
    [0.0, 0.0, 0.0, 1.0]
],
  "dcmmeta_shape": [104, 104, 66, 264],
  "dcmmeta_slice_dim": 2,
  "dcmmeta_version": 0.6,
  "global": {
    "const": {
      "AccessionNumber": "jtu8gsdq",
  "NumberOfVolumes": 264,
      "AcquisitionMatrix": [104, 0, 0, 104],
      "AngioFlag": "N",
      "BitsAllocated": 16,
      "BitsStored": 16,
      "BodyPartExamined": "BRAIN",
      "Columns": 936,
      "EchoNumbers": 1,
      "EchoTime": 37.0,
      "EchoTrainLength": 104,
      "FlipAngle": 68.0,
      "HighBit": 15,
      "ImageOrientationPatient": [0.99898975894172, 0.04417306557246, -0.0082584385629, -0.0448396996635, 0.99199306765871, -0.1180641988545],
      "ImagePositionPatient": [-899.42377471357, -995.7206699396, 67.572068365146],
      "ImageType": [
        "ORIGINAL",
        "PRIMARY",
        "M",
        "MB",
        "ND",
        "MOSAIC"
],
      "ImagedNucleus": "1H",
      "ImagingFrequency": 123.191083,
      "InPlanePhaseEncodingDirection": "COL",
      "MRAcquisitionType": "2D",
      "MagneticFieldStrength": 3.0,
      "Manufacturer": "SIEMENS",
      "ManufacturerModelName": "Prisma",
      "Modality": "MR",
      "NumberOfAverages": 1.0,
      "NumberOfPhaseEncodingSteps": 104,
      "PercentPhaseFieldOfView": 100.0,
      "PercentSampling": 100.0,
      "PerformedProcedureStepStartTime": "102049.080000",
      "PhotometricInterpretation": "MONOCHROME2",
      "PixelBandwidth": 2290.0,
      "PixelRepresentation": 0,
      "PixelSpacing": [2.0, 2.0],
      "ProtocolName": "task-sfprescaled_cmrr_mbepi_s6_2mm_66sl_PA_TR1.0",
      "RepetitionTime": 1000.0,
      "Rows": 936,
      "SAR": 0.0851353274562,
      "SamplesPerPixel": 1,
      "ScanOptions": "FS",
      "ScanningSequence": "EP",
      "SequenceName": "epfid2d1_104",
      "SequenceVariant": [
        "SK",
        "SS"
],
      "SeriesDescription": "task-sfprescaled_cmrr_mbepi_s6_2mm_66sl_PA_TR1.0",
      "SeriesNumber": 18,
      "SeriesTime": "105740.890000",
      "SliceLocation": -53.389410300267,
      "SliceThickness": 2.0,
      "SmallestImagePixelValue": 0,
      "SoftwareVersions": "syngo MR E11",
      "SpacingBetweenSlices": 1.999999945276,
      "SpecificCharacterSet": "ISO_IR 100",
      "StudyID": "1",
      "StudyTime": "102049.028000",
      "TransmitCoilName": "Body",
      "VariableFlipAngleFlag": "N",
      "WindowCenterWidthExplanation": "Algo1",
      "dBdt": 0.0},
    "slices": {}
  },
  "time": {
    "samples": {
      "AcquisitionNumber": [1, 2, 3, 4, 5, 6, 7, 8, 9, 10, 11, 12, 13, 14, 15, 16, 17, 18, 19, 20, 21, 22, 23, 24, 25, 26, 27, 28, 29, 30, 31, 32, 33, 34, 35, 36, 37, 38, 39, 40, 41, 42, 43, 44, 45, 46, 47, 48, 49, 50, 51, 52, 53, 54, 55, 56, 57, 58, 59, 60, 61, 62, 63, 64, 65, 66, 67, 68, 69, 70, 71, 72, 73, 74, 75, 76, 77, 78, 79, 80, 81, 82, 83, 84, 85, 86, 87, 88, 89, 90, 91, 92, 93, 94, 95, 96, 97, 98, 99, 100, 101, 102, 103, 104, 105, 106, 107, 108, 109, 110, 111, 112, 113, 114, 115, 116, 117, 118, 119, 120, 121, 122, 123, 124, 125, 126, 127, 128, 129, 130, 131, 132, 133, 134, 135, 136, 137, 138, 139, 140, 141, 142, 143, 144, 145, 146, 147, 148, 149, 150, 151, 152, 153, 154, 155, 156, 157, 158, 159, 160, 161, 162, 163, 164, 165, 166, 167, 168, 169, 170, 171, 172, 173, 174, 175, 176, 177, 178, 179, 180, 181, 182, 183, 184, 185, 186, 187, 188, 189, 190, 191, 192, 193, 194, 195, 196, 197, 198, 199, 200, 201, 202, 203, 204, 205, 206, 207, 208, 209, 210, 211, 212, 213, 214, 215, 216, 217, 218, 219, 220, 221, 222, 223, 224, 225, 226, 227, 228, 229, 230, 231, 232, 233, 234, 235, 236, 237, 238, 239, 240, 241, 242, 243, 244, 245, 246, 247, 248, 249, 250, 251, 252, 253, 254, 255, 256, 257, 258, 259, 260, 261, 262, 263, 264],
      "AcquisitionTime": ["105645.500000", "105646.500000", "105647.500000", "105648.500000", "105649.500000", "105650.500000", "105651.500000", "105652.500000", "105653.500000", "105654.500000", "105655.500000", "105656.500000", "105657.500000", "105658.500000", "105659.500000", "105700.500000", "105701.500000", "105702.500000", "105703.500000", "105704.500000", "105705.500000", "105706.500000", "105707.500000", "105708.500000", "105709.500000", "105710.500000", "105711.500000", "105712.500000", "105713.500000", "105714.500000", "105715.500000", "105716.500000", "105717.500000", "105718.500000", "105719.500000", "105720.500000", "105721.500000", "105722.500000", "105723.500000", "105724.500000", "105725.500000", "105726.500000", "105727.500000", "105728.500000", "105729.500000", "105730.500000", "105731.500000", "105732.500000", "105733.500000", "105734.500000", "105735.500000", "105736.500000", "105737.500000", "105738.500000", "105739.500000", "105740.500000", "105741.500000", "105742.500000", "105743.500000", "105744.500000", "105745.500000", "105746.500000", "105747.500000", "105748.500000", "105749.500000", "105750.500000", "105751.500000", "105752.500000", "105753.500000", "105754.500000", "105755.500000", "105756.500000", "105757.500000", "105758.500000", "105759.500000", "105800.500000", "105801.500000", "105802.500000", "105803.500000", "105804.500000", "105805.500000", "105806.500000", "105807.500000", "105808.500000", "105809.500000", "105810.500000", "105811.500000", "105812.500000", "105813.500000", "105814.500000", "105815.500000", "105816.500000", "105817.500000", "105818.500000", "105819.500000", "105820.500000", "105821.500000", "105822.500000", "105823.500000", "105824.500000", "105825.500000", "105826.500000", "105827.500000", "105828.500000", "105829.500000", "105830.500000", "105831.500000", "105832.500000", "105833.500000", "105834.500000", "105835.500000", "105836.500000", "105837.500000", "105838.500000", "105839.500000", "105840.500000", "105841.500000", "105842.500000", "105843.500000", "105844.500000", "105845.500000", "105846.500000", "105847.500000", "105848.500000", "105849.500000", "105850.500000", "105851.500000", "105852.500000", "105853.500000", "105854.500000", "105855.500000", "105856.500000", "105857.500000", "105858.500000", "105859.500000", "105900.500000", "105901.500000", "105902.500000", "105903.500000", "105904.500000", "105905.500000", "105906.500000", "105907.500000", "105908.500000", "105909.500000", "105910.500000", "105911.500000", "105912.500000", "105913.500000", "105914.500000", "105915.500000", "105916.500000", "105917.500000", "105918.500000", "105919.500000", "105920.500000", "105921.500000", "105922.500000", "105923.500000", "105924.500000", "105925.500000", "105926.500000", "105927.500000", "105928.500000", "105929.500000", "105930.500000", "105931.500000", "105932.500000", "105933.500000", "105934.500000", "105935.500000", "105936.500000", "105937.500000", "105938.500000", "105939.500000", "105940.500000", "105941.500000", "105942.500000", "105943.500000", "105944.500000", "105945.500000", "105946.500000", "105947.500000", "105948.500000", "105949.500000", "105950.500000", "105951.500000", "105952.500000", "105953.500000", "105954.500000", "105955.500000", "105956.500000", "105957.500000", "105958.500000", "105959.500000", "110000.500000", "110001.500000", "110002.500000", "110003.500000", "110004.500000", "110005.500000", "110006.500000", "110007.500000", "110008.500000", "110009.500000", "110010.500000", "110011.500000", "110012.500000", "110013.500000", "110014.500000", "110015.500000", "110016.500000", "110017.500000", "110018.500000", "110019.500000", "110020.500000", "110021.500000", "110022.500000", "110023.500000", "110024.500000", "110025.500000", "110026.500000", "110027.500000", "110028.500000", "110029.500000", "110030.500000", "110031.500000", "110032.500000", "110033.500000", "110034.500000", "110035.500000", "110036.500000", "110037.500000", "110038.500000", "110039.500000", "110040.500000", "110041.500000", "110042.500000", "110043.500000", "110044.500000", "110045.500000", "110046.500000", "110047.500000", "110048.500000", "110049.500000", "110050.500000", "110051.500000", "110052.500000", "110053.500000", "110054.500000", "110055.500000", "110056.500000", "110057.500000", "110058.500000", "110059.500000", "110100.500000", "110101.500000", "110102.500000", "110103.500000", "110104.500000", "110105.500000", "110106.500000", "110107.500000", "110108.500000"],
      "ContentTime": ["105740.893000", "105740.897000", "105740.900000", "105740.902000", "105740.905000", "105740.908000", "105745.857000", "105745.860000", "105745.871000", "105745.874000", "105745.879000", "105745.895000", "105745.898000", "105750.858000", "105750.861000", "105750.864000", "105750.867000", "105750.870000", "105750.873000", "105750.875000", "105755.858000", "105755.861000", "105755.864000", "105755.867000", "105755.869000", "105755.872000", "105755.875000", "105755.878000", "105800.858000", "105800.861000", "105800.864000", "105800.866000", "105800.869000", "105800.872000", "105800.875000", "105805.858000", "105805.861000", "105805.864000", "105805.866000", "105805.869000", "105805.872000", "105805.875000", "105810.858000", "105810.861000", "105810.864000", "105810.866000", "105810.875000", "105810.878000", "105810.881000", "105815.858000", "105815.861000", "105815.864000", "105815.866000", "105815.869000", "105815.872000", "105815.875000", "105820.857000", "105820.860000", "105820.863000", "105820.866000", "105820.868000", "105820.871000", "105820.874000", "105825.858000", "105825.861000", "105825.864000", "105825.867000", "105825.870000", "105825.872000", "105825.875000", "105830.858000", "105830.861000", "105830.864000", "105830.867000", "105830.870000", "105830.873000", "105830.875000", "105835.858000", "105835.861000", "105835.864000", "105835.867000", "105835.870000", "105835.872000", "105835.875000", "105840.858000", "105840.861000", "105840.864000", "105840.867000", "105840.869000", "105840.872000", "105840.875000", "105845.858000", "105845.861000", "105845.864000", "105845.867000", "105845.870000", "105845.872000", "105845.875000", "105850.858000", "105850.861000", "105850.864000", "105850.867000", "105850.870000", "105850.873000", "105850.875000", "105855.857000", "105855.860000", "105855.863000", "105855.866000", "105855.869000", "105855.872000", "105855.875000", "105900.858000", "105900.861000", "105900.864000", "105900.867000", "105900.869000", "105900.872000", "105900.875000", "105900.878000", "105905.858000", "105905.861000", "105905.864000", "105905.867000", "105905.869000", "105905.872000", "105905.875000", "105910.858000", "105910.895000", "105910.898000", "105910.901000", "105910.903000", "105910.906000", "105910.909000", "105915.858000", "105915.861000", "105915.864000", "105915.867000", "105915.869000", "105915.872000", "105915.875000", "105920.858000", "105920.861000", "105920.864000", "105920.867000", "105920.869000", "105920.872000", "105920.875000", "105925.858000", "105925.861000", "105925.864000", "105925.867000", "105925.870000", "105925.872000", "105925.875000", "105930.857000", "105930.860000", "105930.863000", "105930.866000", "105930.869000", "105930.871000", "105930.874000", "105935.858000", "105935.861000", "105935.864000", "105935.867000", "105935.869000", "105935.872000", "105935.875000", "105940.858000", "105940.861000", "105940.864000", "105940.867000", "105940.870000", "105945.858000", "105945.861000", "105945.864000", "105945.867000", "105945.870000", "105950.858000", "105950.861000", "105950.864000", "105950.867000", "105950.870000", "105955.858000", "105955.861000", "105955.864000", "105955.867000", "105955.870000", "110000.858000", "110000.861000", "110000.864000", "110000.867000", "110000.869000", "110005.857000", "110005.860000", "110005.863000", "110005.866000", "110005.868000", "110010.858000", "110010.861000", "110010.864000", "110010.867000", "110010.869000", "110015.858000", "110015.861000", "110015.864000", "110015.867000", "110015.869000", "110020.870000", "110020.873000", "110020.876000", "110020.879000", "110020.882000", "110025.858000", "110025.861000", "110025.864000", "110025.867000", "110025.869000", "110030.858000", "110030.861000", "110030.864000", "110030.867000", "110030.870000", "110035.858000", "110035.861000", "110035.864000", "110035.867000", "110035.870000", "110040.857000", "110040.860000", "110040.863000", "110040.866000", "110040.868000", "110045.858000", "110045.861000", "110045.864000", "110045.867000", "110045.870000", "110050.858000", "110050.861000", "110050.864000", "110050.867000", "110050.869000", "110055.858000", "110055.861000", "110055.864000", "110055.867000", "110055.870000", "110100.858000", "110100.861000", "110100.864000", "110100.867000", "110100.869000", "110105.858000", "110105.861000", "110105.864000", "110105.867000", "110105.869000", "110110.230000", "110110.233000", "110110.236000", "110110.239000", "110110.242000"],
      "InstanceCreationTime": ["105740.893000", "105740.897000", "105740.900000", "105740.902000", "105740.905000", "105740.908000", "105745.857000", "105745.860000", "105745.871000", "105745.874000", "105745.879000", "105745.895000", "105745.898000", "105750.858000", "105750.861000", "105750.864000", "105750.867000", "105750.870000", "105750.873000", "105750.875000", "105755.858000", "105755.861000", "105755.864000", "105755.867000", "105755.869000", "105755.872000", "105755.875000", "105755.878000", "105800.858000", "105800.861000", "105800.864000", "105800.866000", "105800.869000", "105800.872000", "105800.875000", "105805.858000", "105805.861000", "105805.864000", "105805.866000", "105805.869000", "105805.872000", "105805.875000", "105810.858000", "105810.861000", "105810.864000", "105810.866000", "105810.875000", "105810.878000", "105810.881000", "105815.858000", "105815.861000", "105815.864000", "105815.866000", "105815.869000", "105815.872000", "105815.875000", "105820.857000", "105820.860000", "105820.863000", "105820.866000", "105820.868000", "105820.871000", "105820.874000", "105825.858000", "105825.861000", "105825.864000", "105825.867000", "105825.870000", "105825.872000", "105825.875000", "105830.858000", "105830.861000", "105830.864000", "105830.867000", "105830.870000", "105830.873000", "105830.875000", "105835.858000", "105835.861000", "105835.864000", "105835.867000", "105835.870000", "105835.872000", "105835.875000", "105840.858000", "105840.861000", "105840.864000", "105840.867000", "105840.869000", "105840.872000", "105840.875000", "105845.858000", "105845.861000", "105845.864000", "105845.867000", "105845.870000", "105845.872000", "105845.875000", "105850.858000", "105850.861000", "105850.864000", "105850.867000", "105850.870000", "105850.873000", "105850.875000", "105855.857000", "105855.860000", "105855.863000", "105855.866000", "105855.869000", "105855.872000", "105855.875000", "105900.858000", "105900.861000", "105900.864000", "105900.867000", "105900.869000", "105900.872000", "105900.875000", "105900.878000", "105905.858000", "105905.861000", "105905.864000", "105905.867000", "105905.869000", "105905.872000", "105905.875000", "105910.858000", "105910.895000", "105910.898000", "105910.901000", "105910.903000", "105910.906000", "105910.909000", "105915.858000", "105915.861000", "105915.864000", "105915.867000", "105915.869000", "105915.872000", "105915.875000", "105920.858000", "105920.861000", "105920.864000", "105920.867000", "105920.869000", "105920.872000", "105920.875000", "105925.858000", "105925.861000", "105925.864000", "105925.867000", "105925.870000", "105925.872000", "105925.875000", "105930.857000", "105930.860000", "105930.863000", "105930.866000", "105930.869000", "105930.871000", "105930.874000", "105935.858000", "105935.861000", "105935.864000", "105935.867000", "105935.869000", "105935.872000", "105935.875000", "105940.858000", "105940.861000", "105940.864000", "105940.867000", "105940.870000", "105945.858000", "105945.861000", "105945.864000", "105945.867000", "105945.870000", "105950.858000", "105950.861000", "105950.864000", "105950.867000", "105950.870000", "105955.858000", "105955.861000", "105955.864000", "105955.867000", "105955.870000", "110000.858000", "110000.861000", "110000.864000", "110000.867000", "110000.869000", "110005.857000", "110005.860000", "110005.863000", "110005.866000", "110005.868000", "110010.858000", "110010.861000", "110010.864000", "110010.867000", "110010.869000", "110015.858000", "110015.861000", "110015.864000", "110015.867000", "110015.869000", "110020.870000", "110020.873000", "110020.876000", "110020.879000", "110020.882000", "110025.858000", "110025.861000", "110025.864000", "110025.867000", "110025.869000", "110030.858000", "110030.861000", "110030.864000", "110030.867000", "110030.870000", "110035.858000", "110035.861000", "110035.864000", "110035.867000", "110035.870000", "110040.857000", "110040.860000", "110040.863000", "110040.866000", "110040.868000", "110045.858000", "110045.861000", "110045.864000", "110045.867000", "110045.870000", "110050.858000", "110050.861000", "110050.864000", "110050.867000", "110050.869000", "110055.858000", "110055.861000", "110055.864000", "110055.867000", "110055.870000", "110100.858000", "110100.861000", "110100.864000", "110100.867000", "110100.869000", "110105.858000", "110105.861000", "110105.864000", "110105.867000", "110105.869000", "110110.230000", "110110.233000", "110110.236000", "110110.239000", "110110.242000"],
      "InstanceNumber": [1, 2, 3, 4, 5, 6, 7, 8, 9, 10, 11, 12, 13, 14, 15, 16, 17, 18, 19, 20, 21, 22, 23, 24, 25, 26, 27, 28, 29, 30, 31, 32, 33, 34, 35, 36, 37, 38, 39, 40, 41, 42, 43, 44, 45, 46, 47, 48, 49, 50, 51, 52, 53, 54, 55, 56, 57, 58, 59, 60, 61, 62, 63, 64, 65, 66, 67, 68, 69, 70, 71, 72, 73, 74, 75, 76, 77, 78, 79, 80, 81, 82, 83, 84, 85, 86, 87, 88, 89, 90, 91, 92, 93, 94, 95, 96, 97, 98, 99, 100, 101, 102, 103, 104, 105, 106, 107, 108, 109, 110, 111, 112, 113, 114, 115, 116, 117, 118, 119, 120, 121, 122, 123, 124, 125, 126, 127, 128, 129, 130, 131, 132, 133, 134, 135, 136, 137, 138, 139, 140, 141, 142, 143, 144, 145, 146, 147, 148, 149, 150, 151, 152, 153, 154, 155, 156, 157, 158, 159, 160, 161, 162, 163, 164, 165, 166, 167, 168, 169, 170, 171, 172, 173, 174, 175, 176, 177, 178, 179, 180, 181, 182, 183, 184, 185, 186, 187, 188, 189, 190, 191, 192, 193, 194, 195, 196, 197, 198, 199, 200, 201, 202, 203, 204, 205, 206, 207, 208, 209, 210, 211, 212, 213, 214, 215, 216, 217, 218, 219, 220, 221, 222, 223, 224, 225, 226, 227, 228, 229, 230, 231, 232, 233, 234, 235, 236, 237, 238, 239, 240, 241, 242, 243, 244, 245, 246, 247, 248, 249, 250, 251, 252, 253, 254, 255, 256, 257, 258, 259, 260, 261, 262, 263, 264],
      "LargestImagePixelValue": [32576, 31782, 31877, 30978, 31001, 30824, 30667, 30421, 31032, 30761, 30186, 30385, 30624, 30587, 30281, 30754, 31038, 30704, 30609, 30910, 30338, 31338, 30778, 31002, 31054, 30852, 31145, 30671, 31265, 30939, 30990, 30748, 31336, 30728, 30572, 30928, 30949, 30861, 30722, 30862, 31040, 30699, 30606, 30549, 30370, 30627, 31255, 31258, 30823, 30647, 30518, 30560, 30720, 30827, 31013, 30697, 30686, 30169, 30666, 30765, 30822, 31115, 30615, 31019, 31314, 30483, 30742, 30704, 30462, 30533, 30751, 30502, 30685, 30598, 30878, 30634, 30595, 31252, 30403, 30575, 30337, 30458, 30895, 30696, 31171, 31171, 30720, 30852, 30492, 30496, 30387, 30106, 30428, 31345, 31271, 31063, 31221, 31459, 30843, 31091, 31266, 30782, 31170, 30749, 30321, 30766, 30120, 30452, 30289, 29919, 30419, 30473, 29734, 30479, 30255, 30004, 30347, 30090, 30378, 30072, 30525, 31115, 29735, 30360, 30024, 29609, 30272, 30327, 30270, 30945, 30602, 30562, 30280, 30379, 30758, 30723, 31417, 30521, 30330, 31042, 30049, 30823, 30956, 30045, 31292, 30874, 30613, 30424, 30053, 30408, 29928, 30492, 31007, 30794, 30714, 30784, 31309, 31106, 31056, 30935, 30784, 30821, 30650, 30886, 31056, 31227, 31413, 31671, 31306, 31678, 31462, 31662, 31518, 31354, 31642, 31936, 31810, 32246, 31495, 31567, 31214, 32012, 31561, 31496, 31117, 31821, 31734, 31905, 31549, 31601, 32100, 31704, 31828, 32021, 32173, 32030, 32322, 32443, 32315, 32442, 32358, 32334, 32609, 32154, 32264, 32467, 32151, 32168, 31942, 32122, 32154, 32432, 32125, 32272, 32463, 32481, 32127, 32110, 32301, 31772, 31888, 31943, 31609, 30170, 30267, 30722, 30841, 30688, 31261, 30678, 30981, 31276, 30695, 31013, 30933, 30883, 31006, 31267, 30961, 31086, 31197, 31504, 30814, 30505, 30710, 30000, 30405, 30159, 30475, 29717, 30457, 29949, 30813, 30208, 30190, 30435, 29770, 30049, 29137, 30762, 29873, 30161, 30265, 30281],
      "WindowCenter": [9141.0, 9123.0, 9126.0, 9104.0, 9087.0, 9070.0, 9060.0, 9044.0, 9049.0, 9033.0, 9027.0, 9041.0, 9041.0, 9041.0, 9041.0, 9048.0, 9061.0, 9057.0, 9066.0, 9082.0, 9079.0, 9090.0, 9069.0, 9065.0, 9064.0, 9058.0, 9081.0, 9094.0, 9109.0, 9101.0, 9101.0, 9087.0, 9091.0, 9079.0, 9085.0, 9086.0, 9083.0, 9077.0, 9070.0, 9075.0, 9075.0, 9076.0, 9085.0, 9097.0, 9107.0, 9105.0, 9103.0, 9094.0, 9080.0, 9077.0, 9068.0, 9068.0, 9061.0, 9067.0, 9073.0, 9067.0, 9059.0, 9061.0, 9076.0, 9085.0, 9095.0, 9102.0, 9095.0, 9095.0, 9100.0, 9077.0, 9076.0, 9084.0, 9081.0, 9096.0, 9090.0, 9074.0, 9078.0, 9070.0, 9068.0, 9068.0, 9059.0, 9061.0, 9044.0, 9051.0, 9052.0, 9060.0, 9083.0, 9087.0, 9101.0, 9093.0, 9071.0, 9069.0, 9056.0, 9055.0, 9062.0, 9056.0, 9070.0, 9090.0, 9090.0, 9082.0, 9081.0, 9074.0, 9061.0, 9074.0, 9088.0, 9078.0, 9092.0, 9079.0, 9078.0, 9078.0, 9057.0, 9063.0, 9070.0, 9057.0, 9072.0, 9081.0, 9067.0, 9071.0, 9064.0, 9056.0, 9062.0, 9062.0, 9069.0, 9064.0, 9071.0, 9074.0, 9042.0, 9054.0, 9054.0, 9049.0, 9071.0, 9071.0, 9072.0, 9077.0, 9069.0, 9069.0, 9071.0, 9071.0, 9086.0, 9089.0, 9092.0, 9071.0, 9063.0, 9068.0, 9056.0, 9068.0, 9075.0, 9058.0, 9082.0, 9061.0, 9067.0, 9056.0, 9056.0, 9071.0, 9074.0, 9082.0, 9096.0, 9088.0, 9088.0, 9073.0, 9076.0, 9076.0, 9076.0, 9083.0, 9061.0, 9052.0, 9052.0, 9060.0, 9068.0, 9081.0, 9074.0, 9072.0, 9066.0, 9071.0, 9072.0, 9080.0, 9081.0, 9083.0, 9090.0, 9096.0, 9082.0, 9095.0, 9084.0, 9096.0, 9083.0, 9087.0, 9081.0, 9074.0, 9075.0, 9087.0, 9080.0, 9079.0, 9064.0, 9069.0, 9067.0, 9061.0, 9069.0, 9070.0, 9083.0, 9077.0, 9084.0, 9084.0, 9084.0, 9091.0, 9092.0, 9093.0, 9100.0, 9096.0, 9102.0, 9093.0, 9077.0, 9082.0, 9075.0, 9076.0, 9085.0, 9091.0, 9079.0, 9083.0, 9083.0, 9097.0, 9093.0, 9094.0, 9101.0, 9089.0, 9094.0, 9094.0, 9085.0, 9050.0, 9058.0, 9066.0, 9066.0, 9058.0, 9062.0, 9049.0, 9055.0, 9070.0, 9064.0, 9082.0, 9092.0, 9091.0, 9090.0, 9082.0, 9073.0, 9089.0, 9100.0, 9099.0, 9084.0, 9061.0, 9057.0, 9043.0, 9049.0, 9043.0, 9057.0, 9052.0, 9066.0, 9070.0, 9083.0, 9062.0, 9062.0, 9052.0, 9037.0, 9032.0, 9021.0, 9046.0, 9037.0, 9041.0, 9050.0, 9056.0],
      "WindowWidth": [19383.0, 19333.0, 19325.0, 19275.0, 19239.0, 19202.0, 19176.0, 19144.0, 19150.0, 19119.0, 19110.0, 19135.0, 19136.0, 19136.0, 19135.0, 19148.0, 19174.0, 19170.0, 19188.0, 19223.0, 19223.0, 19240.0, 19198.0, 19185.0, 19183.0, 19175.0, 19222.0, 19256.0, 19283.0, 19268.0, 19264.0, 19236.0, 19239.0, 19220.0, 19231.0, 19234.0, 19224.0, 19215.0, 19202.0, 19209.0, 19209.0, 19212.0, 19232.0, 19261.0, 19285.0, 19276.0, 19273.0, 19251.0, 19224.0, 19214.0, 19193.0, 19191.0, 19178.0, 19189.0, 19201.0, 19189.0, 19175.0, 19181.0, 19210.0, 19231.0, 19254.0, 19269.0, 19254.0, 19254.0, 19261.0, 19214.0, 19211.0, 19225.0, 19225.0, 19257.0, 19246.0, 19213.0, 19216.0, 19199.0, 19192.0, 19192.0, 19172.0, 19169.0, 19143.0, 19157.0, 19162.0, 19180.0, 19224.0, 19235.0, 19261.0, 19244.0, 19201.0, 19194.0, 19168.0, 19168.0, 19183.0, 19175.0, 19202.0, 19237.0, 19235.0, 19219.0, 19213.0, 19200.0, 19178.0, 19203.0, 19228.0, 19217.0, 19243.0, 19219.0, 19216.0, 19212.0, 19174.0, 19187.0, 19197.0, 19177.0, 19207.0, 19223.0, 19197.0, 19201.0, 19186.0, 19174.0, 19182.0, 19180.0, 19196.0, 19188.0, 19199.0, 19198.0, 19144.0, 19165.0, 19163.0, 19160.0, 19202.0, 19202.0, 19203.0, 19208.0, 19191.0, 19194.0, 19202.0, 19202.0, 19233.0, 19239.0, 19239.0, 19203.0, 19185.0, 19193.0, 19175.0, 19194.0, 19202.0, 19176.0, 19215.0, 19177.0, 19187.0, 19170.0, 19169.0, 19199.0, 19209.0, 19228.0, 19252.0, 19237.0, 19236.0, 19205.0, 19208.0, 19205.0, 19208.0, 19221.0, 19176.0, 19157.0, 19156.0, 19173.0, 19191.0, 19211.0, 19199.0, 19193.0, 19181.0, 19191.0, 19193.0, 19207.0, 19214.0, 19218.0, 19232.0, 19241.0, 19217.0, 19237.0, 19221.0, 19244.0, 19218.0, 19224.0, 19215.0, 19200.0, 19207.0, 19222.0, 19209.0, 19203.0, 19173.0, 19179.0, 19173.0, 19164.0, 19182.0, 19186.0, 19211.0, 19200.0, 19215.0, 19215.0, 19212.0, 19226.0, 19227.0, 19231.0, 19244.0, 19241.0, 19252.0, 19228.0, 19197.0, 19204.0, 19191.0, 19198.0, 19213.0, 19224.0, 19204.0, 19207.0, 19212.0, 19234.0, 19230.0, 19234.0, 19244.0, 19227.0, 19236.0, 19237.0, 19220.0, 19156.0, 19169.0, 19187.0, 19183.0, 19166.0, 19174.0, 19149.0, 19161.0, 19191.0, 19183.0, 19223.0, 19245.0, 19241.0, 19239.0, 19218.0, 19201.0, 19233.0, 19258.0, 19257.0, 19225.0, 19179.0, 19165.0, 19140.0, 19152.0, 19144.0, 19168.0, 19165.0, 19191.0, 19200.0, 19221.0, 19180.0, 19181.0, 19156.0, 19125.0, 19115.0, 19097.0, 19142.0, 19128.0, 19134.0, 19154.0, 19164.0]
    },
    "slices": {}
  }
}