{
  "AcquisitionMatrixPE": 104,
  "AcquisitionNumber": 1,
  "AcquisitionTime": "11:21:10.555000",
  "BandwidthPerPixelPhaseEncode": 16.578,
  "BaseResolution": 104,
  "BodyPartExamined": "BRAIN",
  "ConsistencyInfo": "N4_VE11C_LATEST_20160120",
  "ConversionSoftware": "dcm2niix",
  "ConversionSoftwareVersion": "v1.0.20190410  GCC6.3.0",
  "DerivedVendorReportedEchoSpacing": 0.000580009,
  "DeviceSerialNumber": "166018",
  "DwellTime": 2.1e-06,
  "EchoTime": 0.037,
  "EchoTrainLength": 104,
  "EffectiveEchoSpacing": 0.000580009,
  "FlipAngle": 68,
  "ImageComments": "Unaliased_MB6_PE3_LB",
  "ImageOrientationPatientDICOM": [0.99899, 0.0441731, -0.00825844, -0.0448397, 0.991993, -0.118064],
  "ImageType": [
    "ORIGINAL",
    "PRIMARY",
    "M",
    "MB",
    "ND",
    "MOSAIC"
],
  "ImagingFrequency": 123.191,
  "InPlanePhaseEncodingDirectionDICOM": "COL",
  "InstitutionAddress": "Washington_Place_6_NYC_NYC_US_10003",
  "InstitutionName": "NYU_Center_for_Brain_Imaging",
  "InstitutionalDepartmentName": "Department",
  "MRAcquisitionType": "2D",
  "MagneticFieldStrength": 3,
  "Manufacturer": "Siemens",
  "ManufacturersModelName": "Prisma",
  "Modality": "MR",
  "MultibandAccelerationFactor": 6,
  "PartialFourier": 1,
  "PatientPosition": "HFS",
  "PercentPhaseFOV": 100,
  "PhaseEncodingDirection": "j",
  "PhaseEncodingSteps": 104,
  "PhaseResolution": 1,
  "PixelBandwidth": 2290,
  "ProcedureStepDescription": "Investigators_Winawer",
  "ProtocolName": "task-sfprescaled_cmrr_mbepi_s6_2mm_66sl_PA_TR1.0",
  "PulseSequenceDetails": "%CustomerSeq%_cmrr_mbep2d_bold",
  "ReceiveCoilActiveElements": "HC1-7",
  "ReceiveCoilName": "HeadNeck_64",
  "ReconMatrixPE": 104,
  "RepetitionTime": 1,
  "SAR": 0.0851353,
  "ScanOptions": "FS",
  "ScanningSequence": "EP",
  "SequenceName": "epfid2d1_104",
  "SequenceVariant": "SK_SS",
  "SeriesDescription": "task-sfprescaled_cmrr_mbepi_s6_2mm_66sl_PA_TR1.0",
  "SeriesNumber": 28,
  "ShimSetting": [265, -12635, -8448, 454, 41, -196, 58, -2],
  "SliceThickness": 2,
  "SliceTiming": [0, 0.535, 0.09, 0.6225, 0.1775, 0.7125, 0.2675, 0.8025, 0.355, 0.89, 0.445, 0, 0.535, 0.09, 0.6225, 0.1775, 0.7125, 0.2675, 0.8025, 0.355, 0.89, 0.445, 0, 0.535, 0.09, 0.6225, 0.1775, 0.7125, 0.2675, 0.8025, 0.355, 0.89, 0.445, 0, 0.535, 0.09, 0.6225, 0.1775, 0.7125, 0.2675, 0.8025, 0.355, 0.89, 0.445, 0, 0.535, 0.09, 0.6225, 0.1775, 0.7125, 0.2675, 0.8025, 0.355, 0.89, 0.445, 0, 0.535, 0.09, 0.6225, 0.1775, 0.7125, 0.2675, 0.8025, 0.355, 0.89, 0.445],
  "SoftwareVersions": "syngo_MR_E11",
  "SpacingBetweenSlices": 2,
  "StationName": "AWP166018",
  "TaskName": "sfprescaled",
  "TotalReadoutTime": 0.0597409,
  "TxRefAmp": 241.817,
  "WipMemBlock": "40e01c15-de40-4781-af55-74e21a0ded8a||Sequence: R016 ve11c/master r/8780670; Nov 27 2017 15:05:12 by eja",
  "dcmmeta_affine": [
    [-1.9979795217514038, -0.08967939764261246, -0.005954112391918898, 114.80790710449219],
    [-0.08834613114595413, 1.9839861392974854, -0.23663045465946198, -70.72012329101562],
    [-0.016516877338290215, 0.23612840473651886, 1.9859431982040405, -61.84959030151367],
    [0.0, 0.0, 0.0, 1.0]
],
  "dcmmeta_reorient_transform": [
    [0.0, -1.0, 0.0, 103.0],
    [1.0, 0.0, 0.0, 0.0],
    [0.0, 0.0, 1.0, 0.0],
    [0.0, 0.0, 0.0, 1.0]
],
  "dcmmeta_shape": [104, 104, 66, 264],
  "dcmmeta_slice_dim": 2,
  "dcmmeta_version": 0.6,
  "global": {
    "const": {
      "AccessionNumber": "jtu8gsdq",
  "NumberOfVolumes": 264,
      "AcquisitionMatrix": [104, 0, 0, 104],
      "AngioFlag": "N",
      "BitsAllocated": 16,
      "BitsStored": 16,
      "BodyPartExamined": "BRAIN",
      "Columns": 936,
      "EchoNumbers": 1,
      "EchoTime": 37.0,
      "EchoTrainLength": 104,
      "FlipAngle": 68.0,
      "HighBit": 15,
      "ImageOrientationPatient": [0.99898975894172, 0.04417306557246, -0.0082584385629, -0.0448396996635, 0.99199306765871, -0.1180641988545],
      "ImagePositionPatient": [-899.42377471357, -995.7206699396, 67.572068365146],
      "ImageType": [
        "ORIGINAL",
        "PRIMARY",
        "M",
        "MB",
        "ND",
        "MOSAIC"
],
      "ImagedNucleus": "1H",
      "ImagingFrequency": 123.191083,
      "InPlanePhaseEncodingDirection": "COL",
      "MRAcquisitionType": "2D",
      "MagneticFieldStrength": 3.0,
      "Manufacturer": "SIEMENS",
      "ManufacturerModelName": "Prisma",
      "Modality": "MR",
      "NumberOfAverages": 1.0,
      "NumberOfPhaseEncodingSteps": 104,
      "PercentPhaseFieldOfView": 100.0,
      "PercentSampling": 100.0,
      "PerformedProcedureStepStartTime": "102049.080000",
      "PhotometricInterpretation": "MONOCHROME2",
      "PixelBandwidth": 2290.0,
      "PixelRepresentation": 0,
      "PixelSpacing": [2.0, 2.0],
      "ProtocolName": "task-sfprescaled_cmrr_mbepi_s6_2mm_66sl_PA_TR1.0",
      "RepetitionTime": 1000.0,
      "Rows": 936,
      "SAR": 0.0851353274562,
      "SamplesPerPixel": 1,
      "ScanOptions": "FS",
      "ScanningSequence": "EP",
      "SequenceName": "epfid2d1_104",
      "SequenceVariant": [
        "SK",
        "SS"
],
      "SeriesDescription": "task-sfprescaled_cmrr_mbepi_s6_2mm_66sl_PA_TR1.0",
      "SeriesNumber": 28,
      "SeriesTime": "112205.717000",
      "SliceLocation": -53.389410300267,
      "SliceThickness": 2.0,
      "SmallestImagePixelValue": 0,
      "SoftwareVersions": "syngo MR E11",
      "SpacingBetweenSlices": 1.999999945276,
      "SpecificCharacterSet": "ISO_IR 100",
      "StudyID": "1",
      "StudyTime": "102049.028000",
      "TransmitCoilName": "Body",
      "VariableFlipAngleFlag": "N",
      "WindowCenterWidthExplanation": "Algo1",
      "dBdt": 0.0},
    "slices": {}
  },
  "time": {
    "samples": {
      "AcquisitionNumber": [1, 2, 3, 4, 5, 6, 7, 8, 9, 10, 11, 12, 13, 14, 15, 16, 17, 18, 19, 20, 21, 22, 23, 24, 25, 26, 27, 28, 29, 30, 31, 32, 33, 34, 35, 36, 37, 38, 39, 40, 41, 42, 43, 44, 45, 46, 47, 48, 49, 50, 51, 52, 53, 54, 55, 56, 57, 58, 59, 60, 61, 62, 63, 64, 65, 66, 67, 68, 69, 70, 71, 72, 73, 74, 75, 76, 77, 78, 79, 80, 81, 82, 83, 84, 85, 86, 87, 88, 89, 90, 91, 92, 93, 94, 95, 96, 97, 98, 99, 100, 101, 102, 103, 104, 105, 106, 107, 108, 109, 110, 111, 112, 113, 114, 115, 116, 117, 118, 119, 120, 121, 122, 123, 124, 125, 126, 127, 128, 129, 130, 131, 132, 133, 134, 135, 136, 137, 138, 139, 140, 141, 142, 143, 144, 145, 146, 147, 148, 149, 150, 151, 152, 153, 154, 155, 156, 157, 158, 159, 160, 161, 162, 163, 164, 165, 166, 167, 168, 169, 170, 171, 172, 173, 174, 175, 176, 177, 178, 179, 180, 181, 182, 183, 184, 185, 186, 187, 188, 189, 190, 191, 192, 193, 194, 195, 196, 197, 198, 199, 200, 201, 202, 203, 204, 205, 206, 207, 208, 209, 210, 211, 212, 213, 214, 215, 216, 217, 218, 219, 220, 221, 222, 223, 224, 225, 226, 227, 228, 229, 230, 231, 232, 233, 234, 235, 236, 237, 238, 239, 240, 241, 242, 243, 244, 245, 246, 247, 248, 249, 250, 251, 252, 253, 254, 255, 256, 257, 258, 259, 260, 261, 262, 263, 264],
      "AcquisitionTime": ["112110.555000", "112111.555000", "112112.555000", "112113.555000", "112114.555000", "112115.555000", "112116.555000", "112117.555000", "112118.555000", "112119.555000", "112120.555000", "112121.555000", "112122.555000", "112123.555000", "112124.555000", "112125.555000", "112126.555000", "112127.555000", "112128.555000", "112129.555000", "112130.555000", "112131.555000", "112132.555000", "112133.555000", "112134.555000", "112135.555000", "112136.555000", "112137.555000", "112138.555000", "112139.555000", "112140.555000", "112141.555000", "112142.555000", "112143.555000", "112144.555000", "112145.555000", "112146.555000", "112147.555000", "112148.555000", "112149.555000", "112150.555000", "112151.555000", "112152.555000", "112153.555000", "112154.555000", "112155.555000", "112156.555000", "112157.555000", "112158.555000", "112159.555000", "112200.555000", "112201.555000", "112202.555000", "112203.555000", "112204.555000", "112205.555000", "112206.555000", "112207.555000", "112208.555000", "112209.555000", "112210.555000", "112211.555000", "112212.555000", "112213.555000", "112214.555000", "112215.555000", "112216.555000", "112217.555000", "112218.555000", "112219.555000", "112220.555000", "112221.555000", "112222.555000", "112223.555000", "112224.555000", "112225.555000", "112226.555000", "112227.555000", "112228.555000", "112229.555000", "112230.555000", "112231.555000", "112232.555000", "112233.555000", "112234.555000", "112235.555000", "112236.555000", "112237.555000", "112238.555000", "112239.555000", "112240.555000", "112241.555000", "112242.555000", "112243.555000", "112244.555000", "112245.555000", "112246.555000", "112247.555000", "112248.555000", "112249.555000", "112250.555000", "112251.555000", "112252.555000", "112253.555000", "112254.555000", "112255.555000", "112256.555000", "112257.555000", "112258.555000", "112259.555000", "112300.555000", "112301.555000", "112302.555000", "112303.555000", "112304.555000", "112305.555000", "112306.555000", "112307.555000", "112308.555000", "112309.555000", "112310.555000", "112311.555000", "112312.555000", "112313.555000", "112314.555000", "112315.555000", "112316.555000", "112317.555000", "112318.555000", "112319.555000", "112320.555000", "112321.555000", "112322.555000", "112323.555000", "112324.555000", "112325.555000", "112326.555000", "112327.555000", "112328.555000", "112329.555000", "112330.555000", "112331.555000", "112332.555000", "112333.555000", "112334.555000", "112335.555000", "112336.555000", "112337.555000", "112338.555000", "112339.555000", "112340.555000", "112341.555000", "112342.555000", "112343.555000", "112344.555000", "112345.555000", "112346.555000", "112347.555000", "112348.555000", "112349.555000", "112350.555000", "112351.555000", "112352.555000", "112353.555000", "112354.555000", "112355.555000", "112356.555000", "112357.555000", "112358.555000", "112359.555000", "112400.555000", "112401.555000", "112402.555000", "112403.555000", "112404.555000", "112405.555000", "112406.555000", "112407.555000", "112408.555000", "112409.555000", "112410.555000", "112411.555000", "112412.555000", "112413.555000", "112414.555000", "112415.555000", "112416.555000", "112417.555000", "112418.555000", "112419.555000", "112420.555000", "112421.555000", "112422.555000", "112423.555000", "112424.555000", "112425.555000", "112426.555000", "112427.555000", "112428.555000", "112429.555000", "112430.555000", "112431.555000", "112432.555000", "112433.555000", "112434.555000", "112435.555000", "112436.555000", "112437.555000", "112438.555000", "112439.555000", "112440.555000", "112441.555000", "112442.555000", "112443.555000", "112444.555000", "112445.555000", "112446.555000", "112447.555000", "112448.555000", "112449.555000", "112450.555000", "112451.555000", "112452.555000", "112453.555000", "112454.555000", "112455.555000", "112456.555000", "112457.555000", "112458.555000", "112459.555000", "112500.555000", "112501.555000", "112502.555000", "112503.555000", "112504.555000", "112505.555000", "112506.555000", "112507.555000", "112508.555000", "112509.555000", "112510.555000", "112511.555000", "112512.555000", "112513.555000", "112514.555000", "112515.555000", "112516.555000", "112517.555000", "112518.555000", "112519.555000", "112520.555000", "112521.555000", "112522.555000", "112523.555000", "112524.555000", "112525.555000", "112526.555000", "112527.555000", "112528.555000", "112529.555000", "112530.555000", "112531.555000", "112532.555000", "112533.555000"],
      "ContentTime": ["112205.720000", "112205.724000", "112205.727000", "112205.730000", "112205.733000", "112205.736000", "112210.680000", "112210.683000", "112210.686000", "112210.689000", "112210.691000", "112210.694000", "112210.697000", "112215.680000", "112215.683000", "112215.686000", "112215.689000", "112215.691000", "112215.694000", "112215.697000", "112220.681000", "112220.689000", "112220.692000", "112220.695000", "112220.698000", "112220.701000", "112220.703000", "112225.681000", "112225.684000", "112225.687000", "112225.690000", "112225.692000", "112225.695000", "112225.698000", "112230.680000", "112230.683000", "112230.686000", "112230.689000", "112230.691000", "112230.694000", "112230.697000", "112235.681000", "112235.684000", "112235.687000", "112235.690000", "112235.692000", "112235.695000", "112235.698000", "112240.681000", "112240.684000", "112240.687000", "112240.690000", "112240.693000", "112240.696000", "112240.698000", "112245.680000", "112245.683000", "112245.686000", "112245.688000", "112245.691000", "112245.694000", "112245.697000", "112245.700000", "112250.680000", "112250.683000", "112250.686000", "112250.688000", "112250.691000", "112250.694000", "112250.697000", "112255.681000", "112255.684000", "112255.687000", "112255.690000", "112255.692000", "112255.696000", "112300.681000", "112300.684000", "112300.687000", "112300.689000", "112300.692000", "112300.695000", "112300.698000", "112300.701000", "112305.680000", "112305.683000", "112305.686000", "112305.689000", "112305.691000", "112305.694000", "112305.697000", "112310.681000", "112310.684000", "112310.687000", "112310.690000", "112310.692000", "112310.695000", "112310.698000", "112315.681000", "112315.684000", "112315.687000", "112315.690000", "112315.692000", "112315.695000", "112315.698000", "112320.680000", "112320.683000", "112320.686000", "112320.689000", "112320.691000", "112320.694000", "112320.697000", "112325.680000", "112325.683000", "112325.686000", "112325.689000", "112325.691000", "112325.694000", "112325.697000", "112330.681000", "112330.684000", "112330.687000", "112330.690000", "112330.693000", "112330.695000", "112330.698000", "112335.681000", "112335.684000", "112335.687000", "112335.690000", "112335.693000", "112335.695000", "112335.698000", "112340.680000", "112340.683000", "112340.686000", "112340.689000", "112340.692000", "112340.694000", "112340.697000", "112345.681000", "112345.684000", "112345.687000", "112345.690000", "112345.693000", "112345.695000", "112345.698000", "112350.681000", "112350.684000", "112350.687000", "112350.690000", "112350.693000", "112350.695000", "112350.698000", "112355.680000", "112355.683000", "112355.686000", "112355.689000", "112355.692000", "112355.694000", "112355.697000", "112400.680000", "112400.683000", "112400.686000", "112400.689000", "112400.691000", "112400.694000", "112400.697000", "112400.700000", "112405.681000", "112405.684000", "112405.687000", "112405.695000", "112405.698000", "112410.681000", "112410.684000", "112410.687000", "112410.690000", "112410.693000", "112415.680000", "112415.683000", "112415.686000", "112415.689000", "112415.692000", "112420.681000", "112420.691000", "112420.694000", "112420.697000", "112420.700000", "112425.681000", "112425.684000", "112425.687000", "112425.690000", "112425.693000", "112430.680000", "112430.683000", "112430.686000", "112430.689000", "112430.692000", "112435.680000", "112435.683000", "112435.686000", "112435.689000", "112435.692000", "112440.681000", "112440.684000", "112440.687000", "112440.690000", "112440.693000", "112445.681000", "112445.684000", "112445.687000", "112445.690000", "112445.693000", "112450.680000", "112450.683000", "112450.686000", "112450.689000", "112450.692000", "112455.681000", "112455.684000", "112455.687000", "112455.690000", "112455.693000", "112500.681000", "112500.684000", "112500.687000", "112500.690000", "112500.693000", "112505.680000", "112505.683000", "112505.686000", "112505.689000", "112505.692000", "112510.680000", "112510.683000", "112510.686000", "112510.689000", "112510.692000", "112515.681000", "112515.684000", "112515.687000", "112515.690000", "112515.693000", "112520.681000", "112520.684000", "112520.687000", "112520.690000", "112520.693000", "112525.680000", "112525.683000", "112525.686000", "112525.689000", "112525.692000", "112530.681000", "112530.684000", "112530.687000", "112530.690000", "112530.693000", "112535.056000", "112535.062000", "112535.066000", "112535.072000", "112535.075000"],
      "InstanceCreationTime": ["112205.720000", "112205.724000", "112205.727000", "112205.730000", "112205.733000", "112205.736000", "112210.680000", "112210.683000", "112210.686000", "112210.689000", "112210.691000", "112210.694000", "112210.697000", "112215.680000", "112215.683000", "112215.686000", "112215.689000", "112215.691000", "112215.694000", "112215.697000", "112220.681000", "112220.689000", "112220.692000", "112220.695000", "112220.698000", "112220.701000", "112220.703000", "112225.681000", "112225.684000", "112225.687000", "112225.690000", "112225.692000", "112225.695000", "112225.698000", "112230.680000", "112230.683000", "112230.686000", "112230.689000", "112230.691000", "112230.694000", "112230.697000", "112235.681000", "112235.684000", "112235.687000", "112235.690000", "112235.692000", "112235.695000", "112235.698000", "112240.681000", "112240.684000", "112240.687000", "112240.690000", "112240.693000", "112240.696000", "112240.698000", "112245.680000", "112245.683000", "112245.686000", "112245.688000", "112245.691000", "112245.694000", "112245.697000", "112245.700000", "112250.680000", "112250.683000", "112250.686000", "112250.688000", "112250.691000", "112250.694000", "112250.697000", "112255.681000", "112255.684000", "112255.687000", "112255.690000", "112255.692000", "112255.696000", "112300.681000", "112300.684000", "112300.687000", "112300.689000", "112300.692000", "112300.695000", "112300.698000", "112300.701000", "112305.680000", "112305.683000", "112305.686000", "112305.689000", "112305.691000", "112305.694000", "112305.697000", "112310.681000", "112310.684000", "112310.687000", "112310.690000", "112310.692000", "112310.695000", "112310.698000", "112315.681000", "112315.684000", "112315.687000", "112315.690000", "112315.692000", "112315.695000", "112315.698000", "112320.680000", "112320.683000", "112320.686000", "112320.689000", "112320.691000", "112320.694000", "112320.697000", "112325.680000", "112325.683000", "112325.686000", "112325.689000", "112325.691000", "112325.694000", "112325.697000", "112330.681000", "112330.684000", "112330.687000", "112330.690000", "112330.693000", "112330.695000", "112330.698000", "112335.681000", "112335.684000", "112335.687000", "112335.690000", "112335.693000", "112335.695000", "112335.698000", "112340.680000", "112340.683000", "112340.686000", "112340.689000", "112340.692000", "112340.694000", "112340.697000", "112345.681000", "112345.684000", "112345.687000", "112345.690000", "112345.693000", "112345.695000", "112345.698000", "112350.681000", "112350.684000", "112350.687000", "112350.690000", "112350.693000", "112350.695000", "112350.698000", "112355.680000", "112355.683000", "112355.686000", "112355.689000", "112355.692000", "112355.694000", "112355.697000", "112400.680000", "112400.683000", "112400.686000", "112400.689000", "112400.691000", "112400.694000", "112400.697000", "112400.700000", "112405.681000", "112405.684000", "112405.687000", "112405.695000", "112405.698000", "112410.681000", "112410.684000", "112410.687000", "112410.690000", "112410.693000", "112415.680000", "112415.683000", "112415.686000", "112415.689000", "112415.692000", "112420.681000", "112420.691000", "112420.694000", "112420.697000", "112420.700000", "112425.681000", "112425.684000", "112425.687000", "112425.690000", "112425.693000", "112430.680000", "112430.683000", "112430.686000", "112430.689000", "112430.692000", "112435.680000", "112435.683000", "112435.686000", "112435.689000", "112435.692000", "112440.681000", "112440.684000", "112440.687000", "112440.690000", "112440.693000", "112445.681000", "112445.684000", "112445.687000", "112445.690000", "112445.693000", "112450.680000", "112450.683000", "112450.686000", "112450.689000", "112450.692000", "112455.681000", "112455.684000", "112455.687000", "112455.690000", "112455.693000", "112500.681000", "112500.684000", "112500.687000", "112500.690000", "112500.693000", "112505.680000", "112505.683000", "112505.686000", "112505.689000", "112505.692000", "112510.680000", "112510.683000", "112510.686000", "112510.689000", "112510.692000", "112515.681000", "112515.684000", "112515.687000", "112515.690000", "112515.693000", "112520.681000", "112520.684000", "112520.687000", "112520.690000", "112520.693000", "112525.680000", "112525.683000", "112525.686000", "112525.689000", "112525.692000", "112530.681000", "112530.684000", "112530.687000", "112530.690000", "112530.693000", "112535.056000", "112535.062000", "112535.066000", "112535.072000", "112535.075000"],
      "InstanceNumber": [1, 2, 3, 4, 5, 6, 7, 8, 9, 10, 11, 12, 13, 14, 15, 16, 17, 18, 19, 20, 21, 22, 23, 24, 25, 26, 27, 28, 29, 30, 31, 32, 33, 34, 35, 36, 37, 38, 39, 40, 41, 42, 43, 44, 45, 46, 47, 48, 49, 50, 51, 52, 53, 54, 55, 56, 57, 58, 59, 60, 61, 62, 63, 64, 65, 66, 67, 68, 69, 70, 71, 72, 73, 74, 75, 76, 77, 78, 79, 80, 81, 82, 83, 84, 85, 86, 87, 88, 89, 90, 91, 92, 93, 94, 95, 96, 97, 98, 99, 100, 101, 102, 103, 104, 105, 106, 107, 108, 109, 110, 111, 112, 113, 114, 115, 116, 117, 118, 119, 120, 121, 122, 123, 124, 125, 126, 127, 128, 129, 130, 131, 132, 133, 134, 135, 136, 137, 138, 139, 140, 141, 142, 143, 144, 145, 146, 147, 148, 149, 150, 151, 152, 153, 154, 155, 156, 157, 158, 159, 160, 161, 162, 163, 164, 165, 166, 167, 168, 169, 170, 171, 172, 173, 174, 175, 176, 177, 178, 179, 180, 181, 182, 183, 184, 185, 186, 187, 188, 189, 190, 191, 192, 193, 194, 195, 196, 197, 198, 199, 200, 201, 202, 203, 204, 205, 206, 207, 208, 209, 210, 211, 212, 213, 214, 215, 216, 217, 218, 219, 220, 221, 222, 223, 224, 225, 226, 227, 228, 229, 230, 231, 232, 233, 234, 235, 236, 237, 238, 239, 240, 241, 242, 243, 244, 245, 246, 247, 248, 249, 250, 251, 252, 253, 254, 255, 256, 257, 258, 259, 260, 261, 262, 263, 264],
      "LargestImagePixelValue": [32437, 31119, 30754, 31145, 30603, 30345, 29922, 29999, 29770, 30357, 30072, 29859, 30184, 30156, 29934, 30504, 30461, 30066, 30001, 29810, 29659, 29575, 29728, 29627, 29582, 29573, 29556, 29274, 29363, 29094, 29548, 29354, 29155, 28917, 29304, 29362, 29446, 29505, 29386, 29872, 29693, 29581, 29820, 29306, 29881, 29564, 29290, 29468, 30038, 29319, 29579, 29239, 29594, 28847, 29113, 29292, 29496, 29139, 29270, 29613, 29028, 28982, 29361, 29267, 29454, 29229, 29069, 29438, 29564, 29696, 29447, 29310, 29074, 29445, 29283, 29670, 29375, 29571, 29303, 29367, 29332, 29239, 29750, 29546, 29156, 29544, 29499, 29650, 29910, 29389, 29490, 29937, 29654, 29341, 29274, 29705, 29577, 29235, 29302, 29218, 29652, 29538, 29841, 29141, 29065, 29603, 29555, 29225, 29494, 29266, 28991, 29747, 29729, 29279, 29444, 29025, 29566, 29290, 29311, 29409, 29297, 29116, 28965, 28722, 29133, 29030, 28837, 29341, 29193, 29046, 29189, 29157, 28994, 29200, 29389, 29330, 29033, 28960, 28838, 29106, 28975, 28803, 29332, 29159, 28861, 29229, 28783, 28871, 29147, 29115, 29013, 28787, 28989, 29143, 29296, 28796, 29344, 29210, 29559, 28860, 28610, 28991, 29274, 29316, 29260, 28840, 29083, 29261, 28917, 29238, 29319, 29017, 29085, 29204, 29197, 29551, 29170, 29147, 29102, 28932, 28944, 29394, 28976, 29340, 29243, 29177, 29367, 29081, 29405, 29565, 29284, 29306, 29733, 28946, 29199, 29699, 28956, 29148, 29347, 29232, 29078, 29034, 29173, 29400, 29228, 29446, 29281, 29117, 29345, 29220, 29229, 29462, 29251, 29218, 29336, 28986, 29037, 29223, 29240, 28931, 29076, 29337, 28915, 29292, 29154, 29480, 29052, 28801, 28800, 28981, 28878, 29320, 29137, 29280, 28815, 28957, 29126, 28900, 29025, 29502, 29046, 28685, 29237, 29051, 28958, 29133, 28881, 29133, 28868, 28775, 29023, 29611, 29116, 29252, 29296, 29277, 29234, 29504, 29219, 29280, 29219, 29482, 28975, 29503],
      "WindowCenter": [9071.0, 9000.0, 8972.0, 8981.0, 8983.0, 8978.0, 8979.0, 8986.0, 8981.0, 9004.0, 9007.0, 9001.0, 8998.0, 8997.0, 8989.0, 8995.0, 9003.0, 9005.0, 9015.0, 9018.0, 9016.0, 9010.0, 9017.0, 9017.0, 9002.0, 8995.0, 9002.0, 8997.0, 9012.0, 9013.0, 9014.0, 9014.0, 9014.0, 9001.0, 9014.0, 9020.0, 9013.0, 9013.0, 9022.0, 9035.0, 9044.0, 9030.0, 9029.0, 9021.0, 9020.0, 9003.0, 8995.0, 8994.0, 9008.0, 8993.0, 9001.0, 8987.0, 8994.0, 8989.0, 8997.0, 9003.0, 9001.0, 8996.0, 9003.0, 9009.0, 8996.0, 8996.0, 9001.0, 8994.0, 9000.0, 8995.0, 8995.0, 9010.0, 9011.0, 9016.0, 9002.0, 9001.0, 8994.0, 8991.0, 8991.0, 8983.0, 8988.0, 8983.0, 8983.0, 8983.0, 8982.0, 8984.0, 8991.0, 8992.0, 8987.0, 8984.0, 8989.0, 8983.0, 8988.0, 8990.0, 8991.0, 9002.0, 8998.0, 8992.0, 8984.0, 8996.0, 8990.0, 8983.0, 8984.0, 8985.0, 8982.0, 8983.0, 8992.0, 8994.0, 9004.0, 9009.0, 8995.0, 8988.0, 8984.0, 8976.0, 8968.0, 8987.0, 8987.0, 8977.0, 8984.0, 8985.0, 8992.0, 8992.0, 8985.0, 8982.0, 8981.0, 8966.0, 8974.0, 8978.0, 8983.0, 8992.0, 8994.0, 9000.0, 9000.0, 8995.0, 8994.0, 8986.0, 8977.0, 8975.0, 8980.0, 8981.0, 8983.0, 8991.0, 8985.0, 8985.0, 8977.0, 8970.0, 8974.0, 8974.0, 8969.0, 8975.0, 8970.0, 8976.0, 8983.0, 8977.0, 8979.0, 8979.0, 8992.0, 8986.0, 8991.0, 8979.0, 8981.0, 8965.0, 8971.0, 8965.0, 8962.0, 8977.0, 8991.0, 8991.0, 8984.0, 8978.0, 8985.0, 8984.0, 8971.0, 8976.0, 8990.0, 8991.0, 9000.0, 9001.0, 8993.0, 8993.0, 8985.0, 8977.0, 8977.0, 8970.0, 8978.0, 8982.0, 8976.0, 8990.0, 8991.0, 8992.0, 8992.0, 8984.0, 8990.0, 8989.0, 8990.0, 8991.0, 8995.0, 8969.0, 8967.0, 8969.0, 8965.0, 8972.0, 8978.0, 8980.0, 8982.0, 8982.0, 8982.0, 8986.0, 8982.0, 8982.0, 8979.0, 8966.0, 8972.0, 8972.0, 8981.0, 8982.0, 8981.0, 8975.0, 8987.0, 8981.0, 8975.0, 8975.0, 8966.0, 8960.0, 8983.0, 8997.0, 8995.0, 9001.0, 8992.0, 8990.0, 8983.0, 8985.0, 8986.0, 8994.0, 8987.0, 8991.0, 8990.0, 8997.0, 8978.0, 8984.0, 8985.0, 8977.0, 8983.0, 8981.0, 8966.0, 8958.0, 8965.0, 8965.0, 8975.0, 8983.0, 8991.0, 8993.0, 8985.0, 8978.0, 8969.0, 8979.0, 8979.0, 8974.0, 8986.0, 8974.0, 8973.0, 8977.0, 8973.0, 8986.0, 8990.0, 8991.0, 8991.0, 8990.0],
      "WindowWidth": [19225.0, 19061.0, 18996.0, 19006.0, 19009.0, 19002.0, 19005.0, 19020.0, 19012.0, 19059.0, 19068.0, 19053.0, 19047.0, 19043.0, 19025.0, 19039.0, 19055.0, 19060.0, 19086.0, 19094.0, 19087.0, 19080.0, 19092.0, 19094.0, 19064.0, 19049.0, 19062.0, 19056.0, 19085.0, 19090.0, 19091.0, 19094.0, 19091.0, 19067.0, 19093.0, 19101.0, 19089.0, 19091.0, 19109.0, 19133.0, 19149.0, 19124.0, 19119.0, 19102.0, 19095.0, 19062.0, 19045.0, 19046.0, 19067.0, 19042.0, 19056.0, 19033.0, 19045.0, 19040.0, 19054.0, 19066.0, 19058.0, 19053.0, 19065.0, 19073.0, 19050.0, 19051.0, 19057.0, 19044.0, 19054.0, 19046.0, 19047.0, 19075.0, 19079.0, 19084.0, 19056.0, 19055.0, 19041.0, 19033.0, 19033.0, 19016.0, 19024.0, 19017.0, 19019.0, 19019.0, 19014.0, 19020.0, 19032.0, 19038.0, 19032.0, 19019.0, 19030.0, 19019.0, 19024.0, 19031.0, 19032.0, 19052.0, 19049.0, 19036.0, 19023.0, 19042.0, 19032.0, 19019.0, 19021.0, 19025.0, 19015.0, 19019.0, 19035.0, 19045.0, 19066.0, 19072.0, 19045.0, 19032.0, 19019.0, 19005.0, 18991.0, 19021.0, 19023.0, 19008.0, 19021.0, 19027.0, 19037.0, 19035.0, 19024.0, 19013.0, 19008.0, 18980.0, 18996.0, 19013.0, 19019.0, 19035.0, 19043.0, 19050.0, 19054.0, 19046.0, 19041.0, 19025.0, 19006.0, 18998.0, 19003.0, 19011.0, 19019.0, 19033.0, 19025.0, 19022.0, 19005.0, 18992.0, 18996.0, 18996.0, 18992.0, 19002.0, 18993.0, 19004.0, 19016.0, 19008.0, 19013.0, 19015.0, 19035.0, 19027.0, 19031.0, 19013.0, 19008.0, 18977.0, 18986.0, 18979.0, 18979.0, 19007.0, 19034.0, 19033.0, 19020.0, 19011.0, 19022.0, 19022.0, 18998.0, 19006.0, 19030.0, 19035.0, 19053.0, 19055.0, 19039.0, 19037.0, 19022.0, 19009.0, 19006.0, 18994.0, 19012.0, 19017.0, 19005.0, 19030.0, 19033.0, 19038.0, 19038.0, 19021.0, 19032.0, 19027.0, 19029.0, 19034.0, 19035.0, 18989.0, 18981.0, 18980.0, 18978.0, 18989.0, 18998.0, 19007.0, 19012.0, 19013.0, 19012.0, 19017.0, 19013.0, 19010.0, 19001.0, 18979.0, 18991.0, 18991.0, 19010.0, 19014.0, 19012.0, 19002.0, 19022.0, 19012.0, 19003.0, 19001.0, 18981.0, 18976.0, 19017.0, 19045.0, 19049.0, 19057.0, 19038.0, 19030.0, 19020.0, 19028.0, 19029.0, 19046.0, 19033.0, 19032.0, 19030.0, 19042.0, 19011.0, 19022.0, 19026.0, 19008.0, 19018.0, 19011.0, 18981.0, 18969.0, 18979.0, 18979.0, 19004.0, 19016.0, 19034.0, 19039.0, 19024.0, 19014.0, 18990.0, 19002.0, 19003.0, 18996.0, 19015.0, 18997.0, 18994.0, 18996.0, 18993.0, 19017.0, 19031.0, 19034.0, 19033.0, 19029.0]
    },
    "slices": {}
  }
}