{
  "AcquisitionMatrixPE": 104,
  "AcquisitionNumber": 1,
  "AcquisitionTime": "10:51:58.482500",
  "BandwidthPerPixelPhaseEncode": 16.578,
  "BaseResolution": 104,
  "BodyPartExamined": "BRAIN",
  "ConsistencyInfo": "N4_VE11C_LATEST_20160120",
  "ConversionSoftware": "dcm2niix",
  "ConversionSoftwareVersion": "v1.0.20190410  GCC6.3.0",
  "DerivedVendorReportedEchoSpacing": 0.000580009,
  "DeviceSerialNumber": "166018",
  "DwellTime": 2.1e-06,
  "EchoTime": 0.037,
  "EchoTrainLength": 104,
  "EffectiveEchoSpacing": 0.000580009,
  "FlipAngle": 68,
  "ImageComments": "Unaliased_MB6_PE3_LB",
  "ImageOrientationPatientDICOM": [0.99899, 0.0441731, -0.00825844, -0.0448397, 0.991993, -0.118064],
  "ImageType": [
    "ORIGINAL",
    "PRIMARY",
    "M",
    "MB",
    "ND",
    "MOSAIC"
],
  "ImagingFrequency": 123.191,
  "InPlanePhaseEncodingDirectionDICOM": "COL",
  "InstitutionAddress": "Washington_Place_6_NYC_NYC_US_10003",
  "InstitutionName": "NYU_Center_for_Brain_Imaging",
  "InstitutionalDepartmentName": "Department",
  "MRAcquisitionType": "2D",
  "MagneticFieldStrength": 3,
  "Manufacturer": "Siemens",
  "ManufacturersModelName": "Prisma",
  "Modality": "MR",
  "MultibandAccelerationFactor": 6,
  "PartialFourier": 1,
  "PatientPosition": "HFS",
  "PercentPhaseFOV": 100,
  "PhaseEncodingDirection": "j",
  "PhaseEncodingSteps": 104,
  "PhaseResolution": 1,
  "PixelBandwidth": 2290,
  "ProcedureStepDescription": "Investigators_Winawer",
  "ProtocolName": "task-sfprescaled_cmrr_mbepi_s6_2mm_66sl_PA_TR1.0",
  "PulseSequenceDetails": "%CustomerSeq%_cmrr_mbep2d_bold",
  "ReceiveCoilActiveElements": "HC1-7",
  "ReceiveCoilName": "HeadNeck_64",
  "ReconMatrixPE": 104,
  "RepetitionTime": 1,
  "SAR": 0.0851353,
  "ScanOptions": "FS",
  "ScanningSequence": "EP",
  "SequenceName": "epfid2d1_104",
  "SequenceVariant": "SK_SS",
  "SeriesDescription": "task-sfprescaled_cmrr_mbepi_s6_2mm_66sl_PA_TR1.0",
  "SeriesNumber": 16,
  "ShimSetting": [265, -12635, -8448, 454, 41, -196, 58, -2],
  "SliceThickness": 2,
  "SliceTiming": [0, 0.535, 0.09, 0.625, 0.18, 0.715, 0.2675, 0.8025, 0.3575, 0.8925, 0.4475, 0, 0.535, 0.09, 0.625, 0.18, 0.715, 0.2675, 0.8025, 0.3575, 0.8925, 0.4475, 0, 0.535, 0.09, 0.625, 0.18, 0.715, 0.2675, 0.8025, 0.3575, 0.8925, 0.4475, 0, 0.535, 0.09, 0.625, 0.18, 0.715, 0.2675, 0.8025, 0.3575, 0.8925, 0.4475, 0, 0.535, 0.09, 0.625, 0.18, 0.715, 0.2675, 0.8025, 0.3575, 0.8925, 0.4475, 0, 0.535, 0.09, 0.625, 0.18, 0.715, 0.2675, 0.8025, 0.3575, 0.8925, 0.4475],
  "SoftwareVersions": "syngo_MR_E11",
  "SpacingBetweenSlices": 2,
  "StationName": "AWP166018",
  "TaskName": "sfprescaled",
  "TotalReadoutTime": 0.0597409,
  "TxRefAmp": 241.817,
  "WipMemBlock": "40e01c15-de40-4781-af55-74e21a0ded8a||Sequence: R016 ve11c/master r/8780670; Nov 27 2017 15:05:12 by eja",
  "dcmmeta_affine": [
    [-1.9979795217514038, -0.08967939764261246, -0.005954112391918898, 114.80790710449219],
    [-0.08834613114595413, 1.9839861392974854, -0.23663045465946198, -70.72012329101562],
    [-0.016516877338290215, 0.23612840473651886, 1.9859431982040405, -61.84959030151367],
    [0.0, 0.0, 0.0, 1.0]
],
  "dcmmeta_reorient_transform": [
    [0.0, -1.0, 0.0, 103.0],
    [1.0, 0.0, 0.0, 0.0],
    [0.0, 0.0, 1.0, 0.0],
    [0.0, 0.0, 0.0, 1.0]
],
  "dcmmeta_shape": [104, 104, 66, 264],
  "dcmmeta_slice_dim": 2,
  "dcmmeta_version": 0.6,
  "global": {
    "const": {
      "AccessionNumber": "jtu8gsdq",
  "NumberOfVolumes": 264,
      "AcquisitionMatrix": [104, 0, 0, 104],
      "AngioFlag": "N",
      "BitsAllocated": 16,
      "BitsStored": 16,
      "BodyPartExamined": "BRAIN",
      "Columns": 936,
      "EchoNumbers": 1,
      "EchoTime": 37.0,
      "EchoTrainLength": 104,
      "FlipAngle": 68.0,
      "HighBit": 15,
      "ImageOrientationPatient": [0.99898975894172, 0.04417306557246, -0.0082584385629, -0.0448396996635, 0.99199306765871, -0.1180641988545],
      "ImagePositionPatient": [-899.42377471357, -995.7206699396, 67.572068365146],
      "ImageType": [
        "ORIGINAL",
        "PRIMARY",
        "M",
        "MB",
        "ND",
        "MOSAIC"
],
      "ImagedNucleus": "1H",
      "ImagingFrequency": 123.191083,
      "InPlanePhaseEncodingDirection": "COL",
      "MRAcquisitionType": "2D",
      "MagneticFieldStrength": 3.0,
      "Manufacturer": "SIEMENS",
      "ManufacturerModelName": "Prisma",
      "Modality": "MR",
      "NumberOfAverages": 1.0,
      "NumberOfPhaseEncodingSteps": 104,
      "PercentPhaseFieldOfView": 100.0,
      "PercentSampling": 100.0,
      "PerformedProcedureStepStartTime": "102049.080000",
      "PhotometricInterpretation": "MONOCHROME2",
      "PixelBandwidth": 2290.0,
      "PixelRepresentation": 0,
      "PixelSpacing": [2.0, 2.0],
      "ProtocolName": "task-sfprescaled_cmrr_mbepi_s6_2mm_66sl_PA_TR1.0",
      "RepetitionTime": 1000.0,
      "Rows": 936,
      "SAR": 0.0851353274562,
      "SamplesPerPixel": 1,
      "ScanOptions": "FS",
      "ScanningSequence": "EP",
      "SequenceName": "epfid2d1_104",
      "SequenceVariant": [
        "SK",
        "SS"
],
      "SeriesDescription": "task-sfprescaled_cmrr_mbepi_s6_2mm_66sl_PA_TR1.0",
      "SeriesNumber": 16,
      "SeriesTime": "105248.802000",
      "SliceLocation": -53.389410300267,
      "SliceThickness": 2.0,
      "SmallestImagePixelValue": 0,
      "SoftwareVersions": "syngo MR E11",
      "SpacingBetweenSlices": 1.999999945276,
      "SpecificCharacterSet": "ISO_IR 100",
      "StudyID": "1",
      "StudyTime": "102049.028000",
      "TransmitCoilName": "Body",
      "VariableFlipAngleFlag": "N",
      "WindowCenterWidthExplanation": "Algo1",
      "dBdt": 0.0},
    "slices": {}
  },
  "time": {
    "samples": {
      "AcquisitionNumber": [1, 2, 3, 4, 5, 6, 7, 8, 9, 10, 11, 12, 13, 14, 15, 16, 17, 18, 19, 20, 21, 22, 23, 24, 25, 26, 27, 28, 29, 30, 31, 32, 33, 34, 35, 36, 37, 38, 39, 40, 41, 42, 43, 44, 45, 46, 47, 48, 49, 50, 51, 52, 53, 54, 55, 56, 57, 58, 59, 60, 61, 62, 63, 64, 65, 66, 67, 68, 69, 70, 71, 72, 73, 74, 75, 76, 77, 78, 79, 80, 81, 82, 83, 84, 85, 86, 87, 88, 89, 90, 91, 92, 93, 94, 95, 96, 97, 98, 99, 100, 101, 102, 103, 104, 105, 106, 107, 108, 109, 110, 111, 112, 113, 114, 115, 116, 117, 118, 119, 120, 121, 122, 123, 124, 125, 126, 127, 128, 129, 130, 131, 132, 133, 134, 135, 136, 137, 138, 139, 140, 141, 142, 143, 144, 145, 146, 147, 148, 149, 150, 151, 152, 153, 154, 155, 156, 157, 158, 159, 160, 161, 162, 163, 164, 165, 166, 167, 168, 169, 170, 171, 172, 173, 174, 175, 176, 177, 178, 179, 180, 181, 182, 183, 184, 185, 186, 187, 188, 189, 190, 191, 192, 193, 194, 195, 196, 197, 198, 199, 200, 201, 202, 203, 204, 205, 206, 207, 208, 209, 210, 211, 212, 213, 214, 215, 216, 217, 218, 219, 220, 221, 222, 223, 224, 225, 226, 227, 228, 229, 230, 231, 232, 233, 234, 235, 236, 237, 238, 239, 240, 241, 242, 243, 244, 245, 246, 247, 248, 249, 250, 251, 252, 253, 254, 255, 256, 257, 258, 259, 260, 261, 262, 263, 264],
      "AcquisitionTime": ["105158.482500", "105159.482500", "105200.482500", "105201.482500", "105202.482500", "105203.482500", "105204.482500", "105205.482500", "105206.482500", "105207.482500", "105208.482500", "105209.482500", "105210.482500", "105211.482500", "105212.482500", "105213.482500", "105214.482500", "105215.482500", "105216.482500", "105217.482500", "105218.482500", "105219.482500", "105220.482500", "105221.482500", "105222.482500", "105223.482500", "105224.482500", "105225.482500", "105226.482500", "105227.482500", "105228.482500", "105229.482500", "105230.482500", "105231.482500", "105232.482500", "105233.482500", "105234.482500", "105235.482500", "105236.482500", "105237.482500", "105238.482500", "105239.482500", "105240.482500", "105241.482500", "105242.482500", "105243.482500", "105244.482500", "105245.482500", "105246.482500", "105247.482500", "105248.482500", "105249.482500", "105250.482500", "105251.482500", "105252.482500", "105253.482500", "105254.482500", "105255.482500", "105256.482500", "105257.482500", "105258.482500", "105259.482500", "105300.482500", "105301.482500", "105302.482500", "105303.482500", "105304.482500", "105305.482500", "105306.482500", "105307.482500", "105308.482500", "105309.482500", "105310.482500", "105311.482500", "105312.482500", "105313.482500", "105314.482500", "105315.482500", "105316.482500", "105317.482500", "105318.482500", "105319.482500", "105320.482500", "105321.482500", "105322.482500", "105323.482500", "105324.482500", "105325.482500", "105326.482500", "105327.482500", "105328.482500", "105329.482500", "105330.482500", "105331.482500", "105332.482500", "105333.482500", "105334.482500", "105335.482500", "105336.482500", "105337.482500", "105338.482500", "105339.482500", "105340.482500", "105341.482500", "105342.482500", "105343.482500", "105344.482500", "105345.482500", "105346.482500", "105347.482500", "105348.482500", "105349.482500", "105350.482500", "105351.482500", "105352.482500", "105353.482500", "105354.482500", "105355.482500", "105356.482500", "105357.482500", "105358.482500", "105359.482500", "105400.482500", "105401.482500", "105402.482500", "105403.482500", "105404.482500", "105405.482500", "105406.482500", "105407.482500", "105408.482500", "105409.482500", "105410.482500", "105411.482500", "105412.482500", "105413.482500", "105414.482500", "105415.482500", "105416.482500", "105417.482500", "105418.482500", "105419.482500", "105420.482500", "105421.482500", "105422.482500", "105423.482500", "105424.482500", "105425.482500", "105426.482500", "105427.482500", "105428.482500", "105429.482500", "105430.482500", "105431.482500", "105432.482500", "105433.482500", "105434.482500", "105435.482500", "105436.482500", "105437.482500", "105438.482500", "105439.482500", "105440.482500", "105441.482500", "105442.482500", "105443.482500", "105444.482500", "105445.482500", "105446.482500", "105447.482500", "105448.482500", "105449.482500", "105450.482500", "105451.482500", "105452.482500", "105453.482500", "105454.482500", "105455.482500", "105456.482500", "105457.482500", "105458.482500", "105459.482500", "105500.482500", "105501.482500", "105502.482500", "105503.482500", "105504.482500", "105505.482500", "105506.482500", "105507.482500", "105508.482500", "105509.482500", "105510.482500", "105511.482500", "105512.482500", "105513.482500", "105514.482500", "105515.482500", "105516.482500", "105517.482500", "105518.482500", "105519.482500", "105520.482500", "105521.482500", "105522.482500", "105523.482500", "105524.482500", "105525.482500", "105526.482500", "105527.482500", "105528.482500", "105529.482500", "105530.482500", "105531.482500", "105532.482500", "105533.482500", "105534.482500", "105535.482500", "105536.482500", "105537.482500", "105538.482500", "105539.482500", "105540.482500", "105541.482500", "105542.482500", "105543.482500", "105544.482500", "105545.482500", "105546.482500", "105547.482500", "105548.482500", "105549.482500", "105550.482500", "105551.482500", "105552.482500", "105553.482500", "105554.482500", "105555.482500", "105556.482500", "105557.482500", "105558.482500", "105559.482500", "105600.482500", "105601.482500", "105602.482500", "105603.482500", "105604.482500", "105605.482500", "105606.482500", "105607.482500", "105608.482500", "105609.482500", "105610.482500", "105611.482500", "105612.482500", "105613.482500", "105614.482500", "105615.482500", "105616.482500", "105617.482500", "105618.482500", "105619.482500", "105620.482500", "105621.482500"],
      "ContentTime": ["105248.805000", "105248.808000", "105253.774000", "105253.777000", "105253.780000", "105253.783000", "105253.786000", "105253.788000", "105253.791000", "105258.773000", "105258.776000", "105258.779000", "105258.788000", "105258.791000", "105258.794000", "105258.805000", "105303.773000", "105303.776000", "105303.779000", "105303.781000", "105303.784000", "105303.787000", "105303.790000", "105308.774000", "105308.777000", "105308.780000", "105308.783000", "105308.786000", "105308.789000", "105308.791000", "105313.774000", "105313.777000", "105313.780000", "105313.783000", "105313.785000", "105313.788000", "105313.791000", "105318.773000", "105318.776000", "105318.779000", "105318.782000", "105318.785000", "105318.788000", "105318.790000", "105323.773000", "105323.776000", "105323.779000", "105323.783000", "105323.787000", "105323.789000", "105323.792000", "105328.774000", "105328.777000", "105328.780000", "105328.782000", "105328.785000", "105328.788000", "105328.791000", "105328.794000", "105333.774000", "105333.779000", "105333.782000", "105333.785000", "105333.788000", "105333.791000", "105338.773000", "105338.776000", "105338.779000", "105338.782000", "105338.785000", "105338.787000", "105338.790000", "105338.793000", "105343.774000", "105343.777000", "105343.780000", "105343.783000", "105343.785000", "105343.788000", "105343.791000", "105348.774000", "105348.777000", "105348.780000", "105348.783000", "105348.786000", "105348.799000", "105348.802000", "105353.773000", "105353.776000", "105353.779000", "105353.782000", "105353.784000", "105353.787000", "105353.790000", "105358.773000", "105358.776000", "105358.779000", "105358.782000", "105358.785000", "105358.788000", "105358.790000", "105403.774000", "105403.777000", "105403.784000", "105403.787000", "105403.790000", "105403.793000", "105403.795000", "105408.773000", "105408.776000", "105408.779000", "105408.782000", "105408.785000", "105408.788000", "105408.791000", "105413.773000", "105413.776000", "105413.779000", "105413.782000", "105413.785000", "105413.787000", "105413.790000", "105418.774000", "105418.777000", "105418.780000", "105418.783000", "105418.786000", "105418.788000", "105418.791000", "105423.774000", "105423.777000", "105423.780000", "105423.783000", "105423.786000", "105423.789000", "105423.791000", "105428.773000", "105428.776000", "105428.779000", "105428.782000", "105428.785000", "105428.788000", "105428.790000", "105433.773000", "105433.776000", "105433.779000", "105433.782000", "105433.785000", "105433.788000", "105433.790000", "105433.793000", "105438.774000", "105438.777000", "105438.780000", "105438.783000", "105438.785000", "105438.788000", "105438.791000", "105443.773000", "105443.776000", "105443.779000", "105443.782000", "105443.785000", "105443.788000", "105448.773000", "105448.776000", "105448.779000", "105448.782000", "105448.785000", "105453.774000", "105453.777000", "105453.780000", "105453.783000", "105453.786000", "105458.774000", "105458.777000", "105458.780000", "105458.783000", "105458.786000", "105503.773000", "105503.776000", "105503.779000", "105503.782000", "105503.784000", "105508.773000", "105508.776000", "105508.779000", "105508.782000", "105508.806000", "105513.774000", "105513.777000", "105513.780000", "105513.783000", "105513.786000", "105518.773000", "105518.776000", "105518.779000", "105518.782000", "105518.794000", "105523.773000", "105523.776000", "105523.779000", "105523.782000", "105523.785000", "105528.774000", "105528.777000", "105528.780000", "105528.783000", "105528.786000", "105533.774000", "105533.777000", "105533.780000", "105533.783000", "105533.786000", "105538.773000", "105538.776000", "105538.779000", "105538.782000", "105538.785000", "105543.773000", "105543.776000", "105543.779000", "105543.782000", "105543.785000", "105548.774000", "105548.777000", "105548.780000", "105548.783000", "105548.786000", "105553.773000", "105553.776000", "105553.779000", "105553.782000", "105553.785000", "105558.773000", "105558.776000", "105558.779000", "105558.782000", "105558.785000", "105603.774000", "105603.777000", "105603.780000", "105603.783000", "105603.786000", "105608.774000", "105608.777000", "105608.780000", "105608.783000", "105608.786000", "105613.773000", "105613.776000", "105613.779000", "105613.782000", "105613.785000", "105618.773000", "105618.776000", "105618.779000", "105618.782000", "105618.785000", "105623.137000", "105623.140000", "105623.143000", "105623.146000", "105623.149000"],
      "InstanceCreationTime": ["105248.805000", "105248.808000", "105253.774000", "105253.777000", "105253.780000", "105253.783000", "105253.786000", "105253.788000", "105253.791000", "105258.773000", "105258.776000", "105258.779000", "105258.788000", "105258.791000", "105258.794000", "105258.805000", "105303.773000", "105303.776000", "105303.779000", "105303.781000", "105303.784000", "105303.787000", "105303.790000", "105308.774000", "105308.777000", "105308.780000", "105308.783000", "105308.786000", "105308.789000", "105308.791000", "105313.774000", "105313.777000", "105313.780000", "105313.783000", "105313.785000", "105313.788000", "105313.791000", "105318.773000", "105318.776000", "105318.779000", "105318.782000", "105318.785000", "105318.788000", "105318.790000", "105323.773000", "105323.776000", "105323.779000", "105323.783000", "105323.787000", "105323.789000", "105323.792000", "105328.774000", "105328.777000", "105328.780000", "105328.782000", "105328.785000", "105328.788000", "105328.791000", "105328.794000", "105333.774000", "105333.779000", "105333.782000", "105333.785000", "105333.788000", "105333.791000", "105338.773000", "105338.776000", "105338.779000", "105338.782000", "105338.785000", "105338.787000", "105338.790000", "105338.793000", "105343.774000", "105343.777000", "105343.780000", "105343.783000", "105343.785000", "105343.788000", "105343.791000", "105348.774000", "105348.777000", "105348.780000", "105348.783000", "105348.786000", "105348.799000", "105348.802000", "105353.773000", "105353.776000", "105353.779000", "105353.782000", "105353.784000", "105353.787000", "105353.790000", "105358.773000", "105358.776000", "105358.779000", "105358.782000", "105358.785000", "105358.788000", "105358.790000", "105403.774000", "105403.777000", "105403.784000", "105403.787000", "105403.790000", "105403.793000", "105403.795000", "105408.773000", "105408.776000", "105408.779000", "105408.782000", "105408.785000", "105408.788000", "105408.791000", "105413.773000", "105413.776000", "105413.779000", "105413.782000", "105413.785000", "105413.787000", "105413.790000", "105418.774000", "105418.777000", "105418.780000", "105418.783000", "105418.786000", "105418.788000", "105418.791000", "105423.774000", "105423.777000", "105423.780000", "105423.783000", "105423.786000", "105423.789000", "105423.791000", "105428.773000", "105428.776000", "105428.779000", "105428.782000", "105428.785000", "105428.788000", "105428.790000", "105433.773000", "105433.776000", "105433.779000", "105433.782000", "105433.785000", "105433.788000", "105433.790000", "105433.793000", "105438.774000", "105438.777000", "105438.780000", "105438.783000", "105438.785000", "105438.788000", "105438.791000", "105443.773000", "105443.776000", "105443.779000", "105443.782000", "105443.785000", "105443.788000", "105448.773000", "105448.776000", "105448.779000", "105448.782000", "105448.785000", "105453.774000", "105453.777000", "105453.780000", "105453.783000", "105453.786000", "105458.774000", "105458.777000", "105458.780000", "105458.783000", "105458.786000", "105503.773000", "105503.776000", "105503.779000", "105503.782000", "105503.784000", "105508.773000", "105508.776000", "105508.779000", "105508.782000", "105508.806000", "105513.774000", "105513.777000", "105513.780000", "105513.783000", "105513.786000", "105518.773000", "105518.776000", "105518.779000", "105518.782000", "105518.794000", "105523.773000", "105523.776000", "105523.779000", "105523.782000", "105523.785000", "105528.774000", "105528.777000", "105528.780000", "105528.783000", "105528.786000", "105533.774000", "105533.777000", "105533.780000", "105533.783000", "105533.786000", "105538.773000", "105538.776000", "105538.779000", "105538.782000", "105538.785000", "105543.773000", "105543.776000", "105543.779000", "105543.782000", "105543.785000", "105548.774000", "105548.777000", "105548.780000", "105548.783000", "105548.786000", "105553.773000", "105553.776000", "105553.779000", "105553.782000", "105553.785000", "105558.773000", "105558.776000", "105558.779000", "105558.782000", "105558.785000", "105603.774000", "105603.777000", "105603.780000", "105603.783000", "105603.786000", "105608.774000", "105608.777000", "105608.780000", "105608.783000", "105608.786000", "105613.773000", "105613.776000", "105613.779000", "105613.782000", "105613.785000", "105618.773000", "105618.776000", "105618.779000", "105618.782000", "105618.785000", "105623.137000", "105623.140000", "105623.143000", "105623.146000", "105623.149000"],
      "InstanceNumber": [1, 2, 3, 4, 5, 6, 7, 8, 9, 10, 11, 12, 13, 14, 15, 16, 17, 18, 19, 20, 21, 22, 23, 24, 25, 26, 27, 28, 29, 30, 31, 32, 33, 34, 35, 36, 37, 38, 39, 40, 41, 42, 43, 44, 45, 46, 47, 48, 49, 50, 51, 52, 53, 54, 55, 56, 57, 58, 59, 60, 61, 62, 63, 64, 65, 66, 67, 68, 69, 70, 71, 72, 73, 74, 75, 76, 77, 78, 79, 80, 81, 82, 83, 84, 85, 86, 87, 88, 89, 90, 91, 92, 93, 94, 95, 96, 97, 98, 99, 100, 101, 102, 103, 104, 105, 106, 107, 108, 109, 110, 111, 112, 113, 114, 115, 116, 117, 118, 119, 120, 121, 122, 123, 124, 125, 126, 127, 128, 129, 130, 131, 132, 133, 134, 135, 136, 137, 138, 139, 140, 141, 142, 143, 144, 145, 146, 147, 148, 149, 150, 151, 152, 153, 154, 155, 156, 157, 158, 159, 160, 161, 162, 163, 164, 165, 166, 167, 168, 169, 170, 171, 172, 173, 174, 175, 176, 177, 178, 179, 180, 181, 182, 183, 184, 185, 186, 187, 188, 189, 190, 191, 192, 193, 194, 195, 196, 197, 198, 199, 200, 201, 202, 203, 204, 205, 206, 207, 208, 209, 210, 211, 212, 213, 214, 215, 216, 217, 218, 219, 220, 221, 222, 223, 224, 225, 226, 227, 228, 229, 230, 231, 232, 233, 234, 235, 236, 237, 238, 239, 240, 241, 242, 243, 244, 245, 246, 247, 248, 249, 250, 251, 252, 253, 254, 255, 256, 257, 258, 259, 260, 261, 262, 263, 264],
      "LargestImagePixelValue": [34034, 32533, 31787, 32109, 31042, 31129, 31601, 30831, 31305, 31143, 31072, 31164, 31038, 31042, 31399, 31296, 30872, 30826, 31056, 31318, 30522, 30785, 30686, 31082, 30634, 30325, 30470, 30549, 30151, 30380, 30031, 30141, 29286, 30216, 29994, 29555, 29678, 29641, 29812, 29600, 29578, 29067, 29285, 30015, 30253, 29889, 29485, 29208, 29101, 29668, 29471, 29446, 29353, 29934, 29396, 29398, 29481, 28878, 29650, 29542, 29715, 29743, 29651, 30257, 29880, 29661, 30033, 29736, 29457, 30077, 29310, 29873, 29969, 29771, 29846, 30067, 29968, 29957, 30436, 29908, 29668, 30146, 29843, 30217, 29944, 29996, 30363, 30173, 30474, 30558, 30119, 30285, 30542, 30616, 30517, 30416, 30273, 30474, 30390, 30652, 30110, 30629, 30724, 30812, 30634, 30662, 30702, 30994, 30621, 30532, 30114, 30629, 30288, 30772, 30220, 30906, 30857, 30631, 30658, 30373, 30538, 30395, 30391, 30706, 30252, 30428, 30537, 30269, 30301, 30659, 30338, 30833, 29938, 29899, 29872, 30337, 30319, 30141, 30313, 29927, 30231, 29742, 29910, 30379, 30161, 30309, 30067, 29943, 30739, 30409, 30338, 29894, 30256, 30677, 30348, 30630, 30700, 30547, 31244, 30834, 31222, 31361, 31270, 31419, 31568, 31419, 31752, 32628, 32318, 32238, 32119, 31956, 31934, 32215, 31992, 31747, 32107, 32029, 32046, 32096, 31611, 31886, 31462, 31156, 31957, 32124, 32003, 31844, 32022, 32107, 31789, 32278, 31988, 31850, 32233, 32128, 32574, 32296, 32627, 33185, 32735, 32915, 32731, 32518, 33120, 31922, 32534, 31575, 31989, 32243, 32331, 32282, 31834, 31789, 32255, 32069, 32511, 31860, 32395, 31913, 31749, 32007, 31612, 31415, 31641, 31041, 31406, 30817, 30529, 30753, 30563, 30587, 30536, 31246, 31064, 30992, 30589, 30468, 29944, 29457, 29426, 30187, 29517, 29869, 29984, 30104, 29833, 29948, 29984, 30619, 29865, 30414, 29770, 29812, 29731, 29832, 29584, 29953, 29794, 29796, 29745, 30122, 29654, 29807],
      "WindowCenter": [9186.0, 9135.0, 9103.0, 9106.0, 9103.0, 9111.0, 9117.0, 9098.0, 9100.0, 9085.0, 9085.0, 9084.0, 9091.0, 9099.0, 9109.0, 9100.0, 9087.0, 9086.0, 9094.0, 9107.0, 9091.0, 9097.0, 9089.0, 9086.0, 9079.0, 9073.0, 9081.0, 9081.0, 9082.0, 9082.0, 9076.0, 9080.0, 9078.0, 9092.0, 9093.0, 9089.0, 9086.0, 9076.0, 9067.0, 9056.0, 9051.0, 9058.0, 9068.0, 9081.0, 9087.0, 9075.0, 9066.0, 9058.0, 9058.0, 9073.0, 9074.0, 9075.0, 9069.0, 9074.0, 9069.0, 9076.0, 9071.0, 9056.0, 9069.0, 9070.0, 9075.0, 9075.0, 9068.0, 9080.0, 9073.0, 9066.0, 9071.0, 9057.0, 9051.0, 9064.0, 9058.0, 9058.0, 9071.0, 9065.0, 9066.0, 9064.0, 9063.0, 9064.0, 9071.0, 9066.0, 9073.0, 9074.0, 9076.0, 9081.0, 9082.0, 9091.0, 9099.0, 9097.0, 9089.0, 9080.0, 9071.0, 9071.0, 9069.0, 9068.0, 9069.0, 9077.0, 9081.0, 9080.0, 9072.0, 9085.0, 9082.0, 9102.0, 9097.0, 9094.0, 9087.0, 9085.0, 9070.0, 9067.0, 9060.0, 9051.0, 9053.0, 9058.0, 9068.0, 9084.0, 9088.0, 9103.0, 9097.0, 9096.0, 9095.0, 9088.0, 9079.0, 9071.0, 9063.0, 9060.0, 9054.0, 9062.0, 9070.0, 9071.0, 9071.0, 9068.0, 9063.0, 9067.0, 9054.0, 9048.0, 9047.0, 9062.0, 9060.0, 9049.0, 9053.0, 9055.0, 9055.0, 9047.0, 9048.0, 9060.0, 9055.0, 9063.0, 9062.0, 9056.0, 9060.0, 9053.0, 9061.0, 9064.0, 9080.0, 9085.0, 9072.0, 9071.0, 9079.0, 9078.0, 9084.0, 9077.0, 9089.0, 9084.0, 9081.0, 9080.0, 9081.0, 9072.0, 9080.0, 9083.0, 9083.0, 9077.0, 9076.0, 9079.0, 9077.0, 9086.0, 9094.0, 9090.0, 9096.0, 9087.0, 9087.0, 9087.0, 9089.0, 9089.0, 9083.0, 9078.0, 9089.0, 9088.0, 9086.0, 9081.0, 9087.0, 9073.0, 9074.0, 9078.0, 9087.0, 9088.0, 9095.0, 9090.0, 9099.0, 9101.0, 9108.0, 9115.0, 9103.0, 9109.0, 9096.0, 9100.0, 9092.0, 9071.0, 9076.0, 9065.0, 9088.0, 9113.0, 9120.0, 9121.0, 9094.0, 9083.0, 9089.0, 9088.0, 9093.0, 9080.0, 9085.0, 9086.0, 9079.0, 9079.0, 9075.0, 9082.0, 9092.0, 9086.0, 9093.0, 9073.0, 9065.0, 9064.0, 9070.0, 9071.0, 9073.0, 9085.0, 9086.0, 9078.0, 9072.0, 9065.0, 9065.0, 9052.0, 9053.0, 9066.0, 9062.0, 9067.0, 9074.0, 9066.0, 9060.0, 9066.0, 9067.0, 9088.0, 9084.0, 9100.0, 9078.0, 9069.0, 9068.0, 9067.0, 9062.0, 9065.0, 9059.0, 9059.0, 9059.0, 9067.0, 9068.0, 9061.0],
      "WindowWidth": [19466.0, 19345.0, 19273.0, 19271.0, 19270.0, 19283.0, 19290.0, 19257.0, 19256.0, 19227.0, 19225.0, 19223.0, 19236.0, 19256.0, 19275.0, 19255.0, 19233.0, 19229.0, 19244.0, 19269.0, 19246.0, 19255.0, 19239.0, 19231.0, 19216.0, 19208.0, 19227.0, 19226.0, 19229.0, 19228.0, 19219.0, 19225.0, 19224.0, 19253.0, 19257.0, 19253.0, 19245.0, 19218.0, 19197.0, 19173.0, 19167.0, 19184.0, 19204.0, 19226.0, 19237.0, 19215.0, 19195.0, 19179.0, 19180.0, 19211.0, 19212.0, 19218.0, 19208.0, 19214.0, 19211.0, 19223.0, 19215.0, 19188.0, 19206.0, 19211.0, 19216.0, 19217.0, 19207.0, 19224.0, 19211.0, 19196.0, 19202.0, 19178.0, 19170.0, 19191.0, 19181.0, 19182.0, 19204.0, 19194.0, 19195.0, 19191.0, 19187.0, 19192.0, 19205.0, 19200.0, 19214.0, 19213.0, 19221.0, 19228.0, 19232.0, 19253.0, 19266.0, 19262.0, 19243.0, 19225.0, 19206.0, 19204.0, 19196.0, 19190.0, 19197.0, 19215.0, 19226.0, 19224.0, 19208.0, 19232.0, 19232.0, 19266.0, 19260.0, 19250.0, 19234.0, 19229.0, 19198.0, 19189.0, 19174.0, 19158.0, 19163.0, 19169.0, 19193.0, 19225.0, 19242.0, 19270.0, 19263.0, 19258.0, 19252.0, 19240.0, 19221.0, 19204.0, 19185.0, 19177.0, 19169.0, 19185.0, 19200.0, 19202.0, 19202.0, 19194.0, 19186.0, 19191.0, 19167.0, 19155.0, 19156.0, 19183.0, 19177.0, 19160.0, 19162.0, 19171.0, 19171.0, 19155.0, 19156.0, 19177.0, 19170.0, 19186.0, 19182.0, 19173.0, 19173.0, 19161.0, 19178.0, 19188.0, 19219.0, 19227.0, 19203.0, 19202.0, 19219.0, 19217.0, 19227.0, 19213.0, 19232.0, 19224.0, 19214.0, 19213.0, 19212.0, 19196.0, 19208.0, 19208.0, 19209.0, 19198.0, 19196.0, 19203.0, 19199.0, 19219.0, 19237.0, 19236.0, 19241.0, 19221.0, 19223.0, 19222.0, 19229.0, 19226.0, 19219.0, 19211.0, 19226.0, 19223.0, 19216.0, 19210.0, 19220.0, 19194.0, 19198.0, 19204.0, 19223.0, 19228.0, 19242.0, 19231.0, 19241.0, 19245.0, 19257.0, 19272.0, 19253.0, 19262.0, 19242.0, 19243.0, 19226.0, 19188.0, 19195.0, 19179.0, 19226.0, 19279.0, 19295.0, 19295.0, 19243.0, 19217.0, 19226.0, 19223.0, 19230.0, 19208.0, 19214.0, 19219.0, 19205.0, 19204.0, 19201.0, 19217.0, 19237.0, 19228.0, 19238.0, 19201.0, 19184.0, 19182.0, 19193.0, 19198.0, 19206.0, 19225.0, 19229.0, 19212.0, 19202.0, 19187.0, 19187.0, 19165.0, 19171.0, 19192.0, 19191.0, 19196.0, 19208.0, 19189.0, 19182.0, 19191.0, 19197.0, 19236.0, 19234.0, 19264.0, 19220.0, 19201.0, 19197.0, 19198.0, 19188.0, 19187.0, 19179.0, 19176.0, 19177.0, 19194.0, 19197.0, 19186.0]
    },
    "slices": {}
  }
}