{
  "AcquisitionMatrixPE": 104,
  "AcquisitionNumber": 1,
  "AcquisitionTime": "10:47:12.472500",
  "BandwidthPerPixelPhaseEncode": 16.578,
  "BaseResolution": 104,
  "BodyPartExamined": "BRAIN",
  "ConsistencyInfo": "N4_VE11C_LATEST_20160120",
  "ConversionSoftware": "dcm2niix",
  "ConversionSoftwareVersion": "v1.0.20190410  GCC6.3.0",
  "DerivedVendorReportedEchoSpacing": 0.000580009,
  "DeviceSerialNumber": "166018",
  "DwellTime": 2.1e-06,
  "EchoTime": 0.037,
  "EchoTrainLength": 104,
  "EffectiveEchoSpacing": 0.000580009,
  "FlipAngle": 68,
  "ImageComments": "Unaliased_MB6_PE3_LB",
  "ImageOrientationPatientDICOM": [0.99899, 0.0441731, -0.00825844, -0.0448397, 0.991993, -0.118064],
  "ImageType": [
    "ORIGINAL",
    "PRIMARY",
    "M",
    "MB",
    "ND",
    "MOSAIC"
],
  "ImagingFrequency": 123.191,
  "InPlanePhaseEncodingDirectionDICOM": "COL",
  "InstitutionAddress": "Washington_Place_6_NYC_NYC_US_10003",
  "InstitutionName": "NYU_Center_for_Brain_Imaging",
  "InstitutionalDepartmentName": "Department",
  "MRAcquisitionType": "2D",
  "MagneticFieldStrength": 3,
  "Manufacturer": "Siemens",
  "ManufacturersModelName": "Prisma",
  "Modality": "MR",
  "MultibandAccelerationFactor": 6,
  "PartialFourier": 1,
  "PatientPosition": "HFS",
  "PercentPhaseFOV": 100,
  "PhaseEncodingDirection": "j",
  "PhaseEncodingSteps": 104,
  "PhaseResolution": 1,
  "PixelBandwidth": 2290,
  "ProcedureStepDescription": "Investigators_Winawer",
  "ProtocolName": "task-sfprescaled_cmrr_mbepi_s6_2mm_66sl_PA_TR1.0",
  "PulseSequenceDetails": "%CustomerSeq%_cmrr_mbep2d_bold",
  "ReceiveCoilActiveElements": "HC1-7",
  "ReceiveCoilName": "HeadNeck_64",
  "ReconMatrixPE": 104,
  "RepetitionTime": 1,
  "SAR": 0.0851353,
  "ScanOptions": "FS",
  "ScanningSequence": "EP",
  "SequenceName": "epfid2d1_104",
  "SequenceVariant": "SK_SS",
  "SeriesDescription": "task-sfprescaled_cmrr_mbepi_s6_2mm_66sl_PA_TR1.0",
  "SeriesNumber": 14,
  "ShimSetting": [265, -12635, -8448, 454, 41, -196, 58, -2],
  "SliceThickness": 2,
  "SliceTiming": [0, 0.535, 0.0875, 0.6225, 0.1775, 0.7125, 0.2675, 0.8, 0.355, 0.89, 0.445, 0, 0.535, 0.0875, 0.6225, 0.1775, 0.7125, 0.2675, 0.8, 0.355, 0.89, 0.445, 0, 0.535, 0.0875, 0.6225, 0.1775, 0.7125, 0.2675, 0.8, 0.355, 0.89, 0.445, 0, 0.535, 0.0875, 0.6225, 0.1775, 0.7125, 0.2675, 0.8, 0.355, 0.89, 0.445, 0, 0.535, 0.0875, 0.6225, 0.1775, 0.7125, 0.2675, 0.8, 0.355, 0.89, 0.445, 0, 0.535, 0.0875, 0.6225, 0.1775, 0.7125, 0.2675, 0.8, 0.355, 0.89, 0.445],
  "SoftwareVersions": "syngo_MR_E11",
  "SpacingBetweenSlices": 2,
  "StationName": "AWP166018",
  "TaskName": "sfprescaled",
  "TotalReadoutTime": 0.0597409,
  "TxRefAmp": 241.817,
  "WipMemBlock": "40e01c15-de40-4781-af55-74e21a0ded8a||Sequence: R016 ve11c/master r/8780670; Nov 27 2017 15:05:12 by eja",
  "dcmmeta_affine": [
    [-1.9979795217514038, -0.08967939764261246, -0.005954112391918898, 114.80790710449219],
    [-0.08834613114595413, 1.9839861392974854, -0.23663045465946198, -70.72012329101562],
    [-0.016516877338290215, 0.23612840473651886, 1.9859431982040405, -61.84959030151367],
    [0.0, 0.0, 0.0, 1.0]
],
  "dcmmeta_reorient_transform": [
    [0.0, -1.0, 0.0, 103.0],
    [1.0, 0.0, 0.0, 0.0],
    [0.0, 0.0, 1.0, 0.0],
    [0.0, 0.0, 0.0, 1.0]
],
  "dcmmeta_shape": [104, 104, 66, 264],
  "dcmmeta_slice_dim": 2,
  "dcmmeta_version": 0.6,
  "global": {
    "const": {
      "AccessionNumber": "jtu8gsdq",
  "NumberOfVolumes": 264,
      "AcquisitionMatrix": [104, 0, 0, 104],
      "AngioFlag": "N",
      "BitsAllocated": 16,
      "BitsStored": 16,
      "BodyPartExamined": "BRAIN",
      "Columns": 936,
      "EchoNumbers": 1,
      "EchoTime": 37.0,
      "EchoTrainLength": 104,
      "FlipAngle": 68.0,
      "HighBit": 15,
      "ImageOrientationPatient": [0.99898975894172, 0.04417306557246, -0.0082584385629, -0.0448396996635, 0.99199306765871, -0.1180641988545],
      "ImagePositionPatient": [-899.42377471357, -995.7206699396, 67.572068365146],
      "ImageType": [
        "ORIGINAL",
        "PRIMARY",
        "M",
        "MB",
        "ND",
        "MOSAIC"
],
      "ImagedNucleus": "1H",
      "ImagingFrequency": 123.191083,
      "InPlanePhaseEncodingDirection": "COL",
      "MRAcquisitionType": "2D",
      "MagneticFieldStrength": 3.0,
      "Manufacturer": "SIEMENS",
      "ManufacturerModelName": "Prisma",
      "Modality": "MR",
      "NumberOfAverages": 1.0,
      "NumberOfPhaseEncodingSteps": 104,
      "PercentPhaseFieldOfView": 100.0,
      "PercentSampling": 100.0,
      "PerformedProcedureStepStartTime": "102049.080000",
      "PhotometricInterpretation": "MONOCHROME2",
      "PixelBandwidth": 2290.0,
      "PixelRepresentation": 0,
      "PixelSpacing": [2.0, 2.0],
      "ProtocolName": "task-sfprescaled_cmrr_mbepi_s6_2mm_66sl_PA_TR1.0",
      "RepetitionTime": 1000.0,
      "Rows": 936,
      "SAR": 0.0851353274562,
      "SamplesPerPixel": 1,
      "ScanOptions": "FS",
      "ScanningSequence": "EP",
      "SequenceName": "epfid2d1_104",
      "SequenceVariant": [
        "SK",
        "SS"
],
      "SeriesDescription": "task-sfprescaled_cmrr_mbepi_s6_2mm_66sl_PA_TR1.0",
      "SeriesNumber": 14,
      "SeriesTime": "104803.090000",
      "SliceLocation": -53.389410300267,
      "SliceThickness": 2.0,
      "SmallestImagePixelValue": 0,
      "SoftwareVersions": "syngo MR E11",
      "SpacingBetweenSlices": 1.999999945276,
      "SpecificCharacterSet": "ISO_IR 100",
      "StudyID": "1",
      "StudyTime": "102049.028000",
      "TransmitCoilName": "Body",
      "VariableFlipAngleFlag": "N",
      "WindowCenterWidthExplanation": "Algo1",
      "dBdt": 0.0},
    "slices": {}
  },
  "time": {
    "samples": {
      "AcquisitionNumber": [1, 2, 3, 4, 5, 6, 7, 8, 9, 10, 11, 12, 13, 14, 15, 16, 17, 18, 19, 20, 21, 22, 23, 24, 25, 26, 27, 28, 29, 30, 31, 32, 33, 34, 35, 36, 37, 38, 39, 40, 41, 42, 43, 44, 45, 46, 47, 48, 49, 50, 51, 52, 53, 54, 55, 56, 57, 58, 59, 60, 61, 62, 63, 64, 65, 66, 67, 68, 69, 70, 71, 72, 73, 74, 75, 76, 77, 78, 79, 80, 81, 82, 83, 84, 85, 86, 87, 88, 89, 90, 91, 92, 93, 94, 95, 96, 97, 98, 99, 100, 101, 102, 103, 104, 105, 106, 107, 108, 109, 110, 111, 112, 113, 114, 115, 116, 117, 118, 119, 120, 121, 122, 123, 124, 125, 126, 127, 128, 129, 130, 131, 132, 133, 134, 135, 136, 137, 138, 139, 140, 141, 142, 143, 144, 145, 146, 147, 148, 149, 150, 151, 152, 153, 154, 155, 156, 157, 158, 159, 160, 161, 162, 163, 164, 165, 166, 167, 168, 169, 170, 171, 172, 173, 174, 175, 176, 177, 178, 179, 180, 181, 182, 183, 184, 185, 186, 187, 188, 189, 190, 191, 192, 193, 194, 195, 196, 197, 198, 199, 200, 201, 202, 203, 204, 205, 206, 207, 208, 209, 210, 211, 212, 213, 214, 215, 216, 217, 218, 219, 220, 221, 222, 223, 224, 225, 226, 227, 228, 229, 230, 231, 232, 233, 234, 235, 236, 237, 238, 239, 240, 241, 242, 243, 244, 245, 246, 247, 248, 249, 250, 251, 252, 253, 254, 255, 256, 257, 258, 259, 260, 261, 262, 263, 264],
      "AcquisitionTime": ["104712.472500", "104713.472500", "104714.472500", "104715.472500", "104716.472500", "104717.472500", "104718.472500", "104719.472500", "104720.472500", "104721.472500", "104722.472500", "104723.472500", "104724.472500", "104725.472500", "104726.472500", "104727.472500", "104728.472500", "104729.472500", "104730.472500", "104731.472500", "104732.472500", "104733.472500", "104734.472500", "104735.472500", "104736.472500", "104737.472500", "104738.472500", "104739.472500", "104740.472500", "104741.472500", "104742.472500", "104743.472500", "104744.472500", "104745.472500", "104746.472500", "104747.472500", "104748.472500", "104749.472500", "104750.472500", "104751.472500", "104752.472500", "104753.472500", "104754.472500", "104755.472500", "104756.472500", "104757.472500", "104758.472500", "104759.472500", "104800.472500", "104801.472500", "104802.472500", "104803.472500", "104804.472500", "104805.472500", "104806.472500", "104807.472500", "104808.472500", "104809.472500", "104810.472500", "104811.472500", "104812.472500", "104813.472500", "104814.472500", "104815.472500", "104816.472500", "104817.472500", "104818.472500", "104819.472500", "104820.472500", "104821.472500", "104822.472500", "104823.472500", "104824.472500", "104825.472500", "104826.472500", "104827.472500", "104828.472500", "104829.472500", "104830.472500", "104831.472500", "104832.472500", "104833.472500", "104834.472500", "104835.472500", "104836.472500", "104837.472500", "104838.472500", "104839.472500", "104840.472500", "104841.472500", "104842.472500", "104843.472500", "104844.472500", "104845.472500", "104846.472500", "104847.472500", "104848.472500", "104849.472500", "104850.472500", "104851.472500", "104852.472500", "104853.472500", "104854.472500", "104855.472500", "104856.472500", "104857.472500", "104858.472500", "104859.472500", "104900.472500", "104901.472500", "104902.472500", "104903.472500", "104904.472500", "104905.472500", "104906.472500", "104907.472500", "104908.472500", "104909.472500", "104910.472500", "104911.472500", "104912.472500", "104913.472500", "104914.472500", "104915.472500", "104916.472500", "104917.472500", "104918.472500", "104919.472500", "104920.472500", "104921.472500", "104922.472500", "104923.472500", "104924.472500", "104925.472500", "104926.472500", "104927.472500", "104928.472500", "104929.472500", "104930.472500", "104931.472500", "104932.472500", "104933.472500", "104934.472500", "104935.472500", "104936.472500", "104937.472500", "104938.472500", "104939.472500", "104940.472500", "104941.472500", "104942.472500", "104943.472500", "104944.472500", "104945.472500", "104946.472500", "104947.472500", "104948.472500", "104949.472500", "104950.472500", "104951.472500", "104952.472500", "104953.472500", "104954.472500", "104955.472500", "104956.472500", "104957.472500", "104958.472500", "104959.472500", "105000.472500", "105001.472500", "105002.472500", "105003.472500", "105004.472500", "105005.472500", "105006.472500", "105007.472500", "105008.472500", "105009.472500", "105010.472500", "105011.472500", "105012.472500", "105013.472500", "105014.472500", "105015.472500", "105016.472500", "105017.472500", "105018.472500", "105019.472500", "105020.472500", "105021.472500", "105022.472500", "105023.472500", "105024.472500", "105025.472500", "105026.472500", "105027.472500", "105028.472500", "105029.472500", "105030.472500", "105031.472500", "105032.472500", "105033.472500", "105034.472500", "105035.472500", "105036.472500", "105037.472500", "105038.472500", "105039.472500", "105040.472500", "105041.472500", "105042.472500", "105043.472500", "105044.472500", "105045.472500", "105046.472500", "105047.472500", "105048.472500", "105049.472500", "105050.472500", "105051.472500", "105052.472500", "105053.472500", "105054.472500", "105055.472500", "105056.472500", "105057.472500", "105058.472500", "105059.472500", "105100.472500", "105101.472500", "105102.472500", "105103.472500", "105104.472500", "105105.472500", "105106.472500", "105107.472500", "105108.472500", "105109.472500", "105110.472500", "105111.472500", "105112.472500", "105113.472500", "105114.472500", "105115.472500", "105116.472500", "105117.472500", "105118.472500", "105119.472500", "105120.472500", "105121.472500", "105122.472500", "105123.472500", "105124.472500", "105125.472500", "105126.472500", "105127.472500", "105128.472500", "105129.472500", "105130.472500", "105131.472500", "105132.472500", "105133.472500", "105134.472500", "105135.472500"],
      "ContentTime": ["104803.093000", "104808.064000", "104808.082000", "104808.085000", "104808.088000", "104808.091000", "104808.094000", "104808.097000", "104813.064000", "104813.072000", "104813.076000", "104813.079000", "104813.085000", "104813.088000", "104813.091000", "104818.064000", "104818.067000", "104818.070000", "104818.073000", "104818.076000", "104818.079000", "104818.082000", "104823.064000", "104823.067000", "104823.070000", "104823.073000", "104823.076000", "104823.079000", "104823.082000", "104828.065000", "104828.068000", "104828.071000", "104828.074000", "104828.076000", "104828.079000", "104828.082000", "104833.064000", "104833.075000", "104833.078000", "104833.081000", "104833.084000", "104833.087000", "104833.090000", "104838.064000", "104838.067000", "104838.070000", "104838.073000", "104838.076000", "104838.079000", "104838.082000", "104843.064000", "104843.067000", "104843.070000", "104843.073000", "104843.076000", "104843.079000", "104843.081000", "104848.064000", "104848.067000", "104848.070000", "104848.073000", "104848.076000", "104848.079000", "104848.081000", "104853.064000", "104853.067000", "104853.070000", "104853.073000", "104853.076000", "104853.079000", "104853.082000", "104858.064000", "104858.067000", "104858.070000", "104858.073000", "104858.076000", "104858.078000", "104858.081000", "104858.084000", "104903.065000", "104903.068000", "104903.071000", "104903.074000", "104903.076000", "104903.079000", "104903.082000", "104908.064000", "104908.067000", "104908.070000", "104908.073000", "104908.075000", "104908.078000", "104908.081000", "104913.065000", "104913.068000", "104913.071000", "104913.074000", "104913.077000", "104913.080000", "104913.083000", "104918.064000", "104918.067000", "104918.070000", "104918.084000", "104918.087000", "104918.090000", "104918.093000", "104923.064000", "104923.067000", "104923.070000", "104923.073000", "104923.076000", "104923.079000", "104923.081000", "104928.064000", "104928.067000", "104928.070000", "104928.073000", "104928.076000", "104928.078000", "104928.081000", "104933.064000", "104933.067000", "104933.070000", "104933.074000", "104933.077000", "104933.080000", "104933.083000", "104938.065000", "104938.068000", "104938.071000", "104938.074000", "104938.077000", "104938.080000", "104938.082000", "104943.064000", "104943.067000", "104943.070000", "104943.073000", "104943.076000", "104943.078000", "104943.081000", "104948.064000", "104948.067000", "104948.070000", "104948.073000", "104948.076000", "104948.078000", "104948.081000", "104953.064000", "104953.067000", "104953.070000", "104953.073000", "104953.076000", "104953.078000", "104953.081000", "104958.064000", "104958.067000", "104958.070000", "104958.073000", "104958.076000", "104958.078000", "104958.081000", "104958.084000", "105003.064000", "105003.067000", "105003.070000", "105003.073000", "105003.076000", "105008.064000", "105008.067000", "105008.070000", "105008.096000", "105008.099000", "105013.065000", "105013.068000", "105013.071000", "105013.074000", "105013.077000", "105018.064000", "105018.067000", "105018.070000", "105018.073000", "105018.076000", "105023.064000", "105023.067000", "105023.070000", "105023.073000", "105023.076000", "105028.064000", "105028.067000", "105028.070000", "105028.073000", "105028.076000", "105033.064000", "105033.067000", "105033.070000", "105033.073000", "105033.076000", "105038.064000", "105038.067000", "105038.070000", "105038.073000", "105038.076000", "105043.064000", "105043.067000", "105043.079000", "105043.082000", "105043.085000", "105048.065000", "105048.068000", "105048.071000", "105048.074000", "105048.077000", "105053.064000", "105053.067000", "105053.070000", "105053.073000", "105053.076000", "105058.064000", "105058.067000", "105058.070000", "105058.073000", "105058.076000", "105103.064000", "105103.067000", "105103.070000", "105103.073000", "105103.076000", "105108.064000", "105108.067000", "105108.070000", "105108.073000", "105108.076000", "105113.064000", "105113.067000", "105113.070000", "105113.073000", "105113.076000", "105118.064000", "105118.067000", "105118.070000", "105118.073000", "105118.076000", "105123.065000", "105123.068000", "105123.071000", "105123.074000", "105123.077000", "105128.064000", "105128.068000", "105128.071000", "105128.075000", "105128.078000", "105133.064000", "105133.067000", "105133.070000", "105133.073000", "105133.076000", "105137.441000", "105137.445000", "105137.450000", "105137.455000", "105137.458000"],
      "InstanceCreationTime": ["104803.093000", "104808.064000", "104808.082000", "104808.085000", "104808.088000", "104808.091000", "104808.094000", "104808.097000", "104813.064000", "104813.072000", "104813.076000", "104813.079000", "104813.085000", "104813.088000", "104813.091000", "104818.064000", "104818.067000", "104818.070000", "104818.073000", "104818.076000", "104818.079000", "104818.082000", "104823.064000", "104823.067000", "104823.070000", "104823.073000", "104823.076000", "104823.079000", "104823.082000", "104828.065000", "104828.068000", "104828.071000", "104828.074000", "104828.076000", "104828.079000", "104828.082000", "104833.064000", "104833.075000", "104833.078000", "104833.081000", "104833.084000", "104833.087000", "104833.090000", "104838.064000", "104838.067000", "104838.070000", "104838.073000", "104838.076000", "104838.079000", "104838.082000", "104843.064000", "104843.067000", "104843.070000", "104843.073000", "104843.076000", "104843.079000", "104843.081000", "104848.064000", "104848.067000", "104848.070000", "104848.073000", "104848.076000", "104848.079000", "104848.081000", "104853.064000", "104853.067000", "104853.070000", "104853.073000", "104853.076000", "104853.079000", "104853.082000", "104858.064000", "104858.067000", "104858.070000", "104858.073000", "104858.076000", "104858.078000", "104858.081000", "104858.084000", "104903.065000", "104903.068000", "104903.071000", "104903.074000", "104903.076000", "104903.079000", "104903.082000", "104908.064000", "104908.067000", "104908.070000", "104908.073000", "104908.075000", "104908.078000", "104908.081000", "104913.065000", "104913.068000", "104913.071000", "104913.074000", "104913.077000", "104913.080000", "104913.083000", "104918.064000", "104918.067000", "104918.070000", "104918.084000", "104918.087000", "104918.090000", "104918.093000", "104923.064000", "104923.067000", "104923.070000", "104923.073000", "104923.076000", "104923.079000", "104923.081000", "104928.064000", "104928.067000", "104928.070000", "104928.073000", "104928.076000", "104928.078000", "104928.081000", "104933.064000", "104933.067000", "104933.070000", "104933.074000", "104933.077000", "104933.080000", "104933.083000", "104938.065000", "104938.068000", "104938.071000", "104938.074000", "104938.077000", "104938.080000", "104938.082000", "104943.064000", "104943.067000", "104943.070000", "104943.073000", "104943.076000", "104943.078000", "104943.081000", "104948.064000", "104948.067000", "104948.070000", "104948.073000", "104948.076000", "104948.078000", "104948.081000", "104953.064000", "104953.067000", "104953.070000", "104953.073000", "104953.076000", "104953.078000", "104953.081000", "104958.064000", "104958.067000", "104958.070000", "104958.073000", "104958.076000", "104958.078000", "104958.081000", "104958.084000", "105003.064000", "105003.067000", "105003.070000", "105003.073000", "105003.076000", "105008.064000", "105008.067000", "105008.070000", "105008.096000", "105008.099000", "105013.065000", "105013.068000", "105013.071000", "105013.074000", "105013.077000", "105018.064000", "105018.067000", "105018.070000", "105018.073000", "105018.076000", "105023.064000", "105023.067000", "105023.070000", "105023.073000", "105023.076000", "105028.064000", "105028.067000", "105028.070000", "105028.073000", "105028.076000", "105033.064000", "105033.067000", "105033.070000", "105033.073000", "105033.076000", "105038.064000", "105038.067000", "105038.070000", "105038.073000", "105038.076000", "105043.064000", "105043.067000", "105043.079000", "105043.082000", "105043.085000", "105048.065000", "105048.068000", "105048.071000", "105048.074000", "105048.077000", "105053.064000", "105053.067000", "105053.070000", "105053.073000", "105053.076000", "105058.064000", "105058.067000", "105058.070000", "105058.073000", "105058.076000", "105103.064000", "105103.067000", "105103.070000", "105103.073000", "105103.076000", "105108.064000", "105108.067000", "105108.070000", "105108.073000", "105108.076000", "105113.064000", "105113.067000", "105113.070000", "105113.073000", "105113.076000", "105118.064000", "105118.067000", "105118.070000", "105118.073000", "105118.076000", "105123.065000", "105123.068000", "105123.071000", "105123.074000", "105123.077000", "105128.064000", "105128.068000", "105128.071000", "105128.075000", "105128.078000", "105133.064000", "105133.067000", "105133.070000", "105133.073000", "105133.076000", "105137.441000", "105137.445000", "105137.450000", "105137.455000", "105137.458000"],
      "InstanceNumber": [1, 2, 3, 4, 5, 6, 7, 8, 9, 10, 11, 12, 13, 14, 15, 16, 17, 18, 19, 20, 21, 22, 23, 24, 25, 26, 27, 28, 29, 30, 31, 32, 33, 34, 35, 36, 37, 38, 39, 40, 41, 42, 43, 44, 45, 46, 47, 48, 49, 50, 51, 52, 53, 54, 55, 56, 57, 58, 59, 60, 61, 62, 63, 64, 65, 66, 67, 68, 69, 70, 71, 72, 73, 74, 75, 76, 77, 78, 79, 80, 81, 82, 83, 84, 85, 86, 87, 88, 89, 90, 91, 92, 93, 94, 95, 96, 97, 98, 99, 100, 101, 102, 103, 104, 105, 106, 107, 108, 109, 110, 111, 112, 113, 114, 115, 116, 117, 118, 119, 120, 121, 122, 123, 124, 125, 126, 127, 128, 129, 130, 131, 132, 133, 134, 135, 136, 137, 138, 139, 140, 141, 142, 143, 144, 145, 146, 147, 148, 149, 150, 151, 152, 153, 154, 155, 156, 157, 158, 159, 160, 161, 162, 163, 164, 165, 166, 167, 168, 169, 170, 171, 172, 173, 174, 175, 176, 177, 178, 179, 180, 181, 182, 183, 184, 185, 186, 187, 188, 189, 190, 191, 192, 193, 194, 195, 196, 197, 198, 199, 200, 201, 202, 203, 204, 205, 206, 207, 208, 209, 210, 211, 212, 213, 214, 215, 216, 217, 218, 219, 220, 221, 222, 223, 224, 225, 226, 227, 228, 229, 230, 231, 232, 233, 234, 235, 236, 237, 238, 239, 240, 241, 242, 243, 244, 245, 246, 247, 248, 249, 250, 251, 252, 253, 254, 255, 256, 257, 258, 259, 260, 261, 262, 263, 264],
      "LargestImagePixelValue": [35062, 33873, 33593, 32530, 32597, 32784, 32615, 32529, 32845, 33009, 32930, 33643, 33907, 34177, 33846, 33064, 33314, 33088, 33352, 32997, 32736, 32679, 33139, 32811, 33322, 33324, 32948, 33021, 32518, 32841, 33253, 32603, 32701, 32540, 32388, 32708, 32197, 33350, 33504, 33784, 32879, 32801, 32653, 32850, 32883, 32698, 33128, 33255, 33612, 32919, 32471, 32568, 32808, 32587, 32713, 32454, 32475, 31866, 32080, 32714, 32512, 32453, 32299, 32590, 32575, 32322, 32657, 32439, 32030, 32131, 32574, 32425, 32153, 32333, 33225, 32054, 32348, 32466, 32737, 32815, 32207, 32930, 32587, 32919, 32505, 32550, 32573, 32535, 32960, 32858, 32686, 33023, 32861, 32655, 32450, 32837, 32268, 33220, 32876, 32924, 32792, 32707, 32993, 32764, 32846, 32472, 33320, 32595, 32498, 32509, 33109, 32163, 32723, 32980, 32857, 32718, 32779, 32593, 33499, 32407, 32751, 32775, 32907, 33262, 32772, 33483, 33065, 32804, 33057, 33156, 32915, 32904, 33225, 32934, 32554, 33551, 33078, 32839, 33080, 32519, 32750, 32916, 32915, 33064, 32830, 32903, 33173, 32837, 33393, 32891, 33271, 33291, 33211, 32834, 32966, 32926, 33012, 32731, 32764, 33184, 33084, 33111, 33341, 33168, 33101, 32949, 33120, 33068, 32678, 33367, 33363, 33160, 33187, 33098, 32992, 33341, 32738, 32709, 33400, 32876, 33024, 32767, 33123, 33457, 33147, 33661, 33190, 32997, 32840, 33078, 32697, 33749, 33162, 33279, 32866, 33581, 33084, 33381, 33556, 33060, 33035, 32993, 33319, 33580, 33150, 32622, 33469, 33175, 33310, 33027, 33081, 33271, 32969, 33186, 33329, 32942, 32639, 33063, 32348, 32924, 32586, 33106, 33272, 33563, 32982, 32983, 32899, 32720, 32885, 32751, 32740, 32705, 32604, 32455, 32751, 33041, 32208, 32715, 32694, 32169, 31701, 31710, 31736, 32659, 31705, 32298, 32227, 31947, 31972, 31684, 31928, 31844, 32029, 32010, 31853, 32126, 32451, 32396, 32255, 32362, 32253, 31665, 30487, 30942],
      "WindowCenter": [9174.0, 9113.0, 9090.0, 9070.0, 9068.0, 9067.0, 9066.0, 9073.0, 9082.0, 9096.0, 9106.0, 9120.0, 9118.0, 9117.0, 9110.0, 9100.0, 9105.0, 9109.0, 9125.0, 9128.0, 9122.0, 9120.0, 9124.0, 9125.0, 9126.0, 9133.0, 9128.0, 9129.0, 9130.0, 9129.0, 9133.0, 9120.0, 9112.0, 9110.0, 9112.0, 9120.0, 9121.0, 9128.0, 9140.0, 9139.0, 9127.0, 9119.0, 9118.0, 9117.0, 9116.0, 9110.0, 9106.0, 9098.0, 9105.0, 9099.0, 9102.0, 9112.0, 9119.0, 9114.0, 9111.0, 9106.0, 9107.0, 9108.0, 9107.0, 9120.0, 9126.0, 9122.0, 9122.0, 9128.0, 9122.0, 9114.0, 9111.0, 9104.0, 9107.0, 9116.0, 9128.0, 9124.0, 9119.0, 9124.0, 9135.0, 9116.0, 9113.0, 9105.0, 9102.0, 9110.0, 9113.0, 9120.0, 9130.0, 9139.0, 9139.0, 9129.0, 9121.0, 9121.0, 9120.0, 9121.0, 9111.0, 9118.0, 9134.0, 9124.0, 9123.0, 9129.0, 9122.0, 9128.0, 9119.0, 9119.0, 9105.0, 9105.0, 9110.0, 9112.0, 9119.0, 9123.0, 9142.0, 9138.0, 9132.0, 9130.0, 9137.0, 9132.0, 9139.0, 9146.0, 9139.0, 9139.0, 9133.0, 9132.0, 9141.0, 9123.0, 9122.0, 9122.0, 9120.0, 9126.0, 9121.0, 9133.0, 9121.0, 9127.0, 9128.0, 9125.0, 9127.0, 9129.0, 9135.0, 9130.0, 9124.0, 9133.0, 9121.0, 9121.0, 9118.0, 9105.0, 9105.0, 9103.0, 9104.0, 9106.0, 9112.0, 9118.0, 9126.0, 9128.0, 9135.0, 9130.0, 9144.0, 9137.0, 9129.0, 9129.0, 9113.0, 9119.0, 9120.0, 9121.0, 9130.0, 9137.0, 9131.0, 9130.0, 9126.0, 9135.0, 9138.0, 9139.0, 9151.0, 9148.0, 9149.0, 9152.0, 9144.0, 9155.0, 9145.0, 9138.0, 9132.0, 9135.0, 9123.0, 9123.0, 9119.0, 9120.0, 9129.0, 9130.0, 9136.0, 9135.0, 9119.0, 9117.0, 9117.0, 9111.0, 9111.0, 9112.0, 9112.0, 9132.0, 9128.0, 9142.0, 9138.0, 9149.0, 9155.0, 9155.0, 9151.0, 9130.0, 9113.0, 9103.0, 9099.0, 9113.0, 9116.0, 9121.0, 9149.0, 9161.0, 9154.0, 9140.0, 9138.0, 9142.0, 9131.0, 9143.0, 9137.0, 9122.0, 9121.0, 9120.0, 9114.0, 9126.0, 9128.0, 9127.0, 9127.0, 9124.0, 9117.0, 9112.0, 9118.0, 9121.0, 9136.0, 9132.0, 9131.0, 9121.0, 9112.0, 9105.0, 9113.0, 9119.0, 9121.0, 9128.0, 9129.0, 9115.0, 9107.0, 9102.0, 9108.0, 9111.0, 9094.0, 9112.0, 9113.0, 9108.0, 9114.0, 9102.0, 9106.0, 9107.0, 9114.0, 9114.0, 9115.0, 9122.0, 9130.0, 9122.0, 9122.0, 9115.0, 9113.0, 9108.0, 9084.0, 9095.0],
      "WindowWidth": [19433.0, 19288.0, 19227.0, 19188.0, 19180.0, 19176.0, 19173.0, 19188.0, 19207.0, 19235.0, 19257.0, 19280.0, 19275.0, 19269.0, 19257.0, 19244.0, 19250.0, 19263.0, 19297.0, 19306.0, 19296.0, 19288.0, 19292.0, 19296.0, 19298.0, 19312.0, 19308.0, 19310.0, 19316.0, 19310.0, 19313.0, 19291.0, 19271.0, 19267.0, 19273.0, 19289.0, 19295.0, 19306.0, 19328.0, 19324.0, 19301.0, 19285.0, 19283.0, 19279.0, 19277.0, 19265.0, 19252.0, 19235.0, 19245.0, 19239.0, 19248.0, 19270.0, 19286.0, 19277.0, 19268.0, 19260.0, 19264.0, 19268.0, 19266.0, 19286.0, 19297.0, 19290.0, 19291.0, 19303.0, 19290.0, 19275.0, 19266.0, 19255.0, 19266.0, 19285.0, 19306.0, 19302.0, 19293.0, 19303.0, 19317.0, 19283.0, 19274.0, 19254.0, 19249.0, 19264.0, 19275.0, 19291.0, 19312.0, 19330.0, 19331.0, 19307.0, 19290.0, 19290.0, 19288.0, 19289.0, 19266.0, 19283.0, 19313.0, 19300.0, 19298.0, 19307.0, 19295.0, 19305.0, 19286.0, 19282.0, 19255.0, 19257.0, 19262.0, 19271.0, 19286.0, 19298.0, 19333.0, 19329.0, 19316.0, 19311.0, 19324.0, 19320.0, 19333.0, 19344.0, 19331.0, 19331.0, 19321.0, 19315.0, 19324.0, 19296.0, 19293.0, 19292.0, 19287.0, 19298.0, 19291.0, 19308.0, 19288.0, 19301.0, 19302.0, 19296.0, 19301.0, 19308.0, 19319.0, 19311.0, 19302.0, 19312.0, 19291.0, 19290.0, 19280.0, 19256.0, 19255.0, 19249.0, 19254.0, 19259.0, 19273.0, 19284.0, 19299.0, 19304.0, 19316.0, 19310.0, 19335.0, 19323.0, 19306.0, 19305.0, 19274.0, 19283.0, 19285.0, 19292.0, 19312.0, 19323.0, 19315.0, 19310.0, 19299.0, 19318.0, 19329.0, 19334.0, 19356.0, 19352.0, 19354.0, 19355.0, 19336.0, 19363.0, 19341.0, 19327.0, 19318.0, 19317.0, 19298.0, 19297.0, 19287.0, 19288.0, 19306.0, 19309.0, 19321.0, 19314.0, 19281.0, 19275.0, 19276.0, 19267.0, 19268.0, 19270.0, 19273.0, 19307.0, 19303.0, 19329.0, 19329.0, 19345.0, 19364.0, 19363.0, 19349.0, 19309.0, 19272.0, 19249.0, 19238.0, 19265.0, 19277.0, 19296.0, 19347.0, 19379.0, 19363.0, 19334.0, 19326.0, 19333.0, 19313.0, 19334.0, 19324.0, 19294.0, 19292.0, 19288.0, 19280.0, 19298.0, 19306.0, 19303.0, 19299.0, 19290.0, 19279.0, 19269.0, 19281.0, 19291.0, 19320.0, 19318.0, 19313.0, 19291.0, 19272.0, 19258.0, 19275.0, 19285.0, 19295.0, 19305.0, 19309.0, 19278.0, 19265.0, 19255.0, 19267.0, 19270.0, 19241.0, 19271.0, 19273.0, 19269.0, 19277.0, 19258.0, 19261.0, 19265.0, 19275.0, 19279.0, 19280.0, 19295.0, 19310.0, 19294.0, 19292.0, 19280.0, 19273.0, 19269.0, 19227.0, 19246.0]
    },
    "slices": {}
  }
}