{
  "AcquisitionMatrixPE": 104,
  "AcquisitionNumber": 1,
  "AcquisitionTime": "11:11:24.525000",
  "BandwidthPerPixelPhaseEncode": 16.578,
  "BaseResolution": 104,
  "BodyPartExamined": "BRAIN",
  "ConsistencyInfo": "N4_VE11C_LATEST_20160120",
  "ConversionSoftware": "dcm2niix",
  "ConversionSoftwareVersion": "v1.0.20190410  GCC6.3.0",
  "DerivedVendorReportedEchoSpacing": 0.000580009,
  "DeviceSerialNumber": "166018",
  "DwellTime": 2.1e-06,
  "EchoTime": 0.037,
  "EchoTrainLength": 104,
  "EffectiveEchoSpacing": 0.000580009,
  "FlipAngle": 68,
  "ImageComments": "Unaliased_MB6_PE3_LB",
  "ImageOrientationPatientDICOM": [0.99899, 0.0441731, -0.00825844, -0.0448397, 0.991993, -0.118064],
  "ImageType": [
    "ORIGINAL",
    "PRIMARY",
    "M",
    "MB",
    "ND",
    "MOSAIC"
],
  "ImagingFrequency": 123.191,
  "InPlanePhaseEncodingDirectionDICOM": "COL",
  "InstitutionAddress": "Washington_Place_6_NYC_NYC_US_10003",
  "InstitutionName": "NYU_Center_for_Brain_Imaging",
  "InstitutionalDepartmentName": "Department",
  "MRAcquisitionType": "2D",
  "MagneticFieldStrength": 3,
  "Manufacturer": "Siemens",
  "ManufacturersModelName": "Prisma",
  "Modality": "MR",
  "MultibandAccelerationFactor": 6,
  "PartialFourier": 1,
  "PatientPosition": "HFS",
  "PercentPhaseFOV": 100,
  "PhaseEncodingDirection": "j",
  "PhaseEncodingSteps": 104,
  "PhaseResolution": 1,
  "PixelBandwidth": 2290,
  "ProcedureStepDescription": "Investigators_Winawer",
  "ProtocolName": "task-sfprescaled_cmrr_mbepi_s6_2mm_66sl_PA_TR1.0",
  "PulseSequenceDetails": "%CustomerSeq%_cmrr_mbep2d_bold",
  "ReceiveCoilActiveElements": "HC1-7",
  "ReceiveCoilName": "HeadNeck_64",
  "ReconMatrixPE": 104,
  "RepetitionTime": 1,
  "SAR": 0.0851353,
  "ScanOptions": "FS",
  "ScanningSequence": "EP",
  "SequenceName": "epfid2d1_104",
  "SequenceVariant": "SK_SS",
  "SeriesDescription": "task-sfprescaled_cmrr_mbepi_s6_2mm_66sl_PA_TR1.0",
  "SeriesNumber": 24,
  "ShimSetting": [265, -12635, -8448, 454, 41, -196, 58, -2],
  "SliceThickness": 2,
  "SliceTiming": [0, 0.535, 0.0875, 0.6225, 0.1775, 0.7125, 0.2675, 0.8025, 0.355, 0.89, 0.445, 0, 0.535, 0.0875, 0.6225, 0.1775, 0.7125, 0.2675, 0.8025, 0.355, 0.89, 0.445, 0, 0.535, 0.0875, 0.6225, 0.1775, 0.7125, 0.2675, 0.8025, 0.355, 0.89, 0.445, 0, 0.535, 0.0875, 0.6225, 0.1775, 0.7125, 0.2675, 0.8025, 0.355, 0.89, 0.445, 0, 0.535, 0.0875, 0.6225, 0.1775, 0.7125, 0.2675, 0.8025, 0.355, 0.89, 0.445, 0, 0.535, 0.0875, 0.6225, 0.1775, 0.7125, 0.2675, 0.8025, 0.355, 0.89, 0.445],
  "SoftwareVersions": "syngo_MR_E11",
  "SpacingBetweenSlices": 2,
  "StationName": "AWP166018",
  "TaskName": "sfprescaled",
  "TotalReadoutTime": 0.0597409,
  "TxRefAmp": 241.817,
  "WipMemBlock": "40e01c15-de40-4781-af55-74e21a0ded8a||Sequence: R016 ve11c/master r/8780670; Nov 27 2017 15:05:12 by eja",
  "dcmmeta_affine": [
    [-1.9979795217514038, -0.08967939764261246, -0.005954112391918898, 114.80790710449219],
    [-0.08834613114595413, 1.9839861392974854, -0.23663045465946198, -70.72012329101562],
    [-0.016516877338290215, 0.23612840473651886, 1.9859431982040405, -61.84959030151367],
    [0.0, 0.0, 0.0, 1.0]
],
  "dcmmeta_reorient_transform": [
    [0.0, -1.0, 0.0, 103.0],
    [1.0, 0.0, 0.0, 0.0],
    [0.0, 0.0, 1.0, 0.0],
    [0.0, 0.0, 0.0, 1.0]
],
  "dcmmeta_shape": [104, 104, 66, 264],
  "dcmmeta_slice_dim": 2,
  "dcmmeta_version": 0.6,
  "global": {
    "const": {
      "AccessionNumber": "jtu8gsdq",
  "NumberOfVolumes": 264,
      "AcquisitionMatrix": [104, 0, 0, 104],
      "AngioFlag": "N",
      "BitsAllocated": 16,
      "BitsStored": 16,
      "BodyPartExamined": "BRAIN",
      "Columns": 936,
      "EchoNumbers": 1,
      "EchoTime": 37.0,
      "EchoTrainLength": 104,
      "FlipAngle": 68.0,
      "HighBit": 15,
      "ImageOrientationPatient": [0.99898975894172, 0.04417306557246, -0.0082584385629, -0.0448396996635, 0.99199306765871, -0.1180641988545],
      "ImagePositionPatient": [-899.42377471357, -995.7206699396, 67.572068365146],
      "ImageType": [
        "ORIGINAL",
        "PRIMARY",
        "M",
        "MB",
        "ND",
        "MOSAIC"
],
      "ImagedNucleus": "1H",
      "ImagingFrequency": 123.191083,
      "InPlanePhaseEncodingDirection": "COL",
      "MRAcquisitionType": "2D",
      "MagneticFieldStrength": 3.0,
      "Manufacturer": "SIEMENS",
      "ManufacturerModelName": "Prisma",
      "Modality": "MR",
      "NumberOfAverages": 1.0,
      "NumberOfPhaseEncodingSteps": 104,
      "PercentPhaseFieldOfView": 100.0,
      "PercentSampling": 100.0,
      "PerformedProcedureStepStartTime": "102049.080000",
      "PhotometricInterpretation": "MONOCHROME2",
      "PixelBandwidth": 2290.0,
      "PixelRepresentation": 0,
      "PixelSpacing": [2.0, 2.0],
      "ProtocolName": "task-sfprescaled_cmrr_mbepi_s6_2mm_66sl_PA_TR1.0",
      "RepetitionTime": 1000.0,
      "Rows": 936,
      "SAR": 0.0851353274562,
      "SamplesPerPixel": 1,
      "ScanOptions": "FS",
      "ScanningSequence": "EP",
      "SequenceName": "epfid2d1_104",
      "SequenceVariant": [
        "SK",
        "SS"
],
      "SeriesDescription": "task-sfprescaled_cmrr_mbepi_s6_2mm_66sl_PA_TR1.0",
      "SeriesNumber": 24,
      "SeriesTime": "111220.243000",
      "SliceLocation": -53.389410300267,
      "SliceThickness": 2.0,
      "SmallestImagePixelValue": 0,
      "SoftwareVersions": "syngo MR E11",
      "SpacingBetweenSlices": 1.999999945276,
      "SpecificCharacterSet": "ISO_IR 100",
      "StudyID": "1",
      "StudyTime": "102049.028000",
      "TransmitCoilName": "Body",
      "VariableFlipAngleFlag": "N",
      "WindowCenterWidthExplanation": "Algo1",
      "dBdt": 0.0},
    "slices": {}
  },
  "time": {
    "samples": {
      "AcquisitionNumber": [1, 2, 3, 4, 5, 6, 7, 8, 9, 10, 11, 12, 13, 14, 15, 16, 17, 18, 19, 20, 21, 22, 23, 24, 25, 26, 27, 28, 29, 30, 31, 32, 33, 34, 35, 36, 37, 38, 39, 40, 41, 42, 43, 44, 45, 46, 47, 48, 49, 50, 51, 52, 53, 54, 55, 56, 57, 58, 59, 60, 61, 62, 63, 64, 65, 66, 67, 68, 69, 70, 71, 72, 73, 74, 75, 76, 77, 78, 79, 80, 81, 82, 83, 84, 85, 86, 87, 88, 89, 90, 91, 92, 93, 94, 95, 96, 97, 98, 99, 100, 101, 102, 103, 104, 105, 106, 107, 108, 109, 110, 111, 112, 113, 114, 115, 116, 117, 118, 119, 120, 121, 122, 123, 124, 125, 126, 127, 128, 129, 130, 131, 132, 133, 134, 135, 136, 137, 138, 139, 140, 141, 142, 143, 144, 145, 146, 147, 148, 149, 150, 151, 152, 153, 154, 155, 156, 157, 158, 159, 160, 161, 162, 163, 164, 165, 166, 167, 168, 169, 170, 171, 172, 173, 174, 175, 176, 177, 178, 179, 180, 181, 182, 183, 184, 185, 186, 187, 188, 189, 190, 191, 192, 193, 194, 195, 196, 197, 198, 199, 200, 201, 202, 203, 204, 205, 206, 207, 208, 209, 210, 211, 212, 213, 214, 215, 216, 217, 218, 219, 220, 221, 222, 223, 224, 225, 226, 227, 228, 229, 230, 231, 232, 233, 234, 235, 236, 237, 238, 239, 240, 241, 242, 243, 244, 245, 246, 247, 248, 249, 250, 251, 252, 253, 254, 255, 256, 257, 258, 259, 260, 261, 262, 263, 264],
      "AcquisitionTime": ["111124.525000", "111125.525000", "111126.525000", "111127.525000", "111128.525000", "111129.525000", "111130.525000", "111131.525000", "111132.525000", "111133.525000", "111134.525000", "111135.525000", "111136.525000", "111137.525000", "111138.525000", "111139.525000", "111140.525000", "111141.525000", "111142.525000", "111143.525000", "111144.525000", "111145.525000", "111146.525000", "111147.525000", "111148.525000", "111149.525000", "111150.525000", "111151.525000", "111152.525000", "111153.525000", "111154.525000", "111155.525000", "111156.525000", "111157.525000", "111158.525000", "111159.525000", "111200.525000", "111201.525000", "111202.525000", "111203.525000", "111204.525000", "111205.525000", "111206.525000", "111207.525000", "111208.525000", "111209.525000", "111210.525000", "111211.525000", "111212.525000", "111213.525000", "111214.525000", "111215.525000", "111216.525000", "111217.525000", "111218.525000", "111219.525000", "111220.525000", "111221.525000", "111222.525000", "111223.525000", "111224.525000", "111225.525000", "111226.525000", "111227.525000", "111228.525000", "111229.525000", "111230.525000", "111231.525000", "111232.525000", "111233.525000", "111234.525000", "111235.525000", "111236.525000", "111237.525000", "111238.525000", "111239.525000", "111240.525000", "111241.525000", "111242.525000", "111243.525000", "111244.525000", "111245.525000", "111246.525000", "111247.525000", "111248.525000", "111249.525000", "111250.525000", "111251.525000", "111252.525000", "111253.525000", "111254.525000", "111255.525000", "111256.525000", "111257.525000", "111258.525000", "111259.525000", "111300.525000", "111301.525000", "111302.525000", "111303.525000", "111304.525000", "111305.525000", "111306.525000", "111307.525000", "111308.525000", "111309.525000", "111310.525000", "111311.525000", "111312.525000", "111313.525000", "111314.525000", "111315.525000", "111316.525000", "111317.525000", "111318.525000", "111319.525000", "111320.525000", "111321.525000", "111322.525000", "111323.525000", "111324.525000", "111325.525000", "111326.525000", "111327.525000", "111328.525000", "111329.525000", "111330.525000", "111331.525000", "111332.525000", "111333.525000", "111334.525000", "111335.525000", "111336.525000", "111337.525000", "111338.525000", "111339.525000", "111340.525000", "111341.525000", "111342.525000", "111343.525000", "111344.525000", "111345.525000", "111346.525000", "111347.525000", "111348.525000", "111349.525000", "111350.525000", "111351.525000", "111352.525000", "111353.525000", "111354.525000", "111355.525000", "111356.525000", "111357.525000", "111358.525000", "111359.525000", "111400.525000", "111401.525000", "111402.525000", "111403.525000", "111404.525000", "111405.525000", "111406.525000", "111407.525000", "111408.525000", "111409.525000", "111410.525000", "111411.525000", "111412.525000", "111413.525000", "111414.525000", "111415.525000", "111416.525000", "111417.525000", "111418.525000", "111419.525000", "111420.525000", "111421.525000", "111422.525000", "111423.525000", "111424.525000", "111425.525000", "111426.525000", "111427.525000", "111428.525000", "111429.525000", "111430.525000", "111431.525000", "111432.525000", "111433.525000", "111434.525000", "111435.525000", "111436.525000", "111437.525000", "111438.525000", "111439.525000", "111440.525000", "111441.525000", "111442.525000", "111443.525000", "111444.525000", "111445.525000", "111446.525000", "111447.525000", "111448.525000", "111449.525000", "111450.525000", "111451.525000", "111452.525000", "111453.525000", "111454.525000", "111455.525000", "111456.525000", "111457.525000", "111458.525000", "111459.525000", "111500.525000", "111501.525000", "111502.525000", "111503.525000", "111504.525000", "111505.525000", "111506.525000", "111507.525000", "111508.525000", "111509.525000", "111510.525000", "111511.525000", "111512.525000", "111513.525000", "111514.525000", "111515.525000", "111516.525000", "111517.525000", "111518.525000", "111519.525000", "111520.525000", "111521.525000", "111522.525000", "111523.525000", "111524.525000", "111525.525000", "111526.525000", "111527.525000", "111528.525000", "111529.525000", "111530.525000", "111531.525000", "111532.525000", "111533.525000", "111534.525000", "111535.525000", "111536.525000", "111537.525000", "111538.525000", "111539.525000", "111540.525000", "111541.525000", "111542.525000", "111543.525000", "111544.525000", "111545.525000", "111546.525000", "111547.525000"],
      "ContentTime": ["111220.246000", "111220.250000", "111220.253000", "111220.256000", "111220.259000", "111220.262000", "111225.216000", "111225.226000", "111225.229000", "111225.232000", "111225.235000", "111225.238000", "111225.241000", "111230.216000", "111230.219000", "111230.222000", "111230.225000", "111230.228000", "111230.239000", "111230.242000", "111235.216000", "111235.219000", "111235.222000", "111235.225000", "111235.228000", "111235.230000", "111235.233000", "111240.217000", "111240.220000", "111240.223000", "111240.226000", "111240.229000", "111240.231000", "111240.234000", "111245.216000", "111245.219000", "111245.222000", "111245.225000", "111245.235000", "111245.238000", "111245.241000", "111250.216000", "111250.219000", "111250.222000", "111250.225000", "111250.228000", "111250.231000", "111250.234000", "111255.216000", "111255.219000", "111255.222000", "111255.225000", "111255.238000", "111255.241000", "111255.244000", "111300.216000", "111300.219000", "111300.222000", "111300.225000", "111300.228000", "111300.231000", "111300.234000", "111305.216000", "111305.219000", "111305.222000", "111305.225000", "111305.228000", "111305.230000", "111305.233000", "111310.216000", "111310.219000", "111310.222000", "111310.225000", "111310.227000", "111310.230000", "111310.233000", "111310.236000", "111315.217000", "111315.220000", "111315.223000", "111315.226000", "111315.228000", "111315.231000", "111315.234000", "111320.216000", "111320.219000", "111320.222000", "111320.225000", "111320.228000", "111320.231000", "111320.233000", "111325.216000", "111325.219000", "111325.222000", "111325.225000", "111325.228000", "111325.230000", "111325.233000", "111330.216000", "111330.219000", "111330.222000", "111330.225000", "111330.228000", "111330.231000", "111330.233000", "111335.216000", "111335.219000", "111335.222000", "111335.225000", "111335.228000", "111335.231000", "111335.233000", "111340.216000", "111340.219000", "111340.222000", "111340.225000", "111340.228000", "111340.230000", "111340.233000", "111345.216000", "111345.219000", "111345.222000", "111345.225000", "111345.228000", "111345.231000", "111345.234000", "111350.217000", "111350.220000", "111350.223000", "111350.226000", "111350.229000", "111350.232000", "111350.234000", "111355.216000", "111355.219000", "111355.222000", "111355.225000", "111355.228000", "111355.230000", "111355.233000", "111400.216000", "111400.219000", "111400.222000", "111400.225000", "111400.228000", "111400.230000", "111400.233000", "111405.229000", "111405.232000", "111405.235000", "111405.238000", "111405.241000", "111405.244000", "111405.247000", "111410.216000", "111410.219000", "111410.222000", "111410.224000", "111410.227000", "111410.230000", "111410.233000", "111410.236000", "111415.216000", "111415.219000", "111415.222000", "111415.224000", "111415.227000", "111415.230000", "111415.233000", "111420.216000", "111420.219000", "111420.222000", "111420.225000", "111420.228000", "111425.217000", "111425.220000", "111425.223000", "111425.226000", "111425.228000", "111430.216000", "111430.219000", "111430.222000", "111430.225000", "111430.228000", "111435.216000", "111435.219000", "111435.222000", "111435.225000", "111435.228000", "111440.216000", "111440.219000", "111440.222000", "111440.225000", "111440.228000", "111445.216000", "111445.219000", "111445.222000", "111445.225000", "111445.228000", "111450.216000", "111450.219000", "111450.222000", "111450.224000", "111450.227000", "111455.216000", "111455.219000", "111455.222000", "111455.225000", "111455.228000", "111500.217000", "111500.220000", "111500.223000", "111500.226000", "111500.229000", "111505.216000", "111505.219000", "111505.222000", "111505.225000", "111505.228000", "111510.216000", "111510.219000", "111510.222000", "111510.225000", "111510.228000", "111515.216000", "111515.219000", "111515.222000", "111515.225000", "111515.228000", "111520.216000", "111520.219000", "111520.222000", "111520.225000", "111520.227000", "111525.216000", "111525.219000", "111525.222000", "111525.225000", "111525.228000", "111530.216000", "111530.219000", "111530.222000", "111530.225000", "111530.227000", "111535.217000", "111535.220000", "111535.223000", "111535.226000", "111535.229000", "111540.216000", "111540.219000", "111540.222000", "111540.224000", "111540.227000", "111545.216000", "111545.219000", "111545.222000", "111545.225000", "111545.227000", "111549.578000", "111549.582000", "111549.587000", "111549.592000", "111549.595000"],
      "InstanceCreationTime": ["111220.246000", "111220.250000", "111220.253000", "111220.256000", "111220.259000", "111220.262000", "111225.216000", "111225.226000", "111225.229000", "111225.232000", "111225.235000", "111225.238000", "111225.241000", "111230.216000", "111230.219000", "111230.222000", "111230.225000", "111230.228000", "111230.239000", "111230.242000", "111235.216000", "111235.219000", "111235.222000", "111235.225000", "111235.228000", "111235.230000", "111235.233000", "111240.217000", "111240.220000", "111240.223000", "111240.226000", "111240.229000", "111240.231000", "111240.234000", "111245.216000", "111245.219000", "111245.222000", "111245.225000", "111245.235000", "111245.238000", "111245.241000", "111250.216000", "111250.219000", "111250.222000", "111250.225000", "111250.228000", "111250.231000", "111250.234000", "111255.216000", "111255.219000", "111255.222000", "111255.225000", "111255.238000", "111255.241000", "111255.244000", "111300.216000", "111300.219000", "111300.222000", "111300.225000", "111300.228000", "111300.231000", "111300.234000", "111305.216000", "111305.219000", "111305.222000", "111305.225000", "111305.228000", "111305.230000", "111305.233000", "111310.216000", "111310.219000", "111310.222000", "111310.225000", "111310.227000", "111310.230000", "111310.233000", "111310.236000", "111315.217000", "111315.220000", "111315.223000", "111315.226000", "111315.228000", "111315.231000", "111315.234000", "111320.216000", "111320.219000", "111320.222000", "111320.225000", "111320.228000", "111320.231000", "111320.233000", "111325.216000", "111325.219000", "111325.222000", "111325.225000", "111325.228000", "111325.230000", "111325.233000", "111330.216000", "111330.219000", "111330.222000", "111330.225000", "111330.228000", "111330.231000", "111330.233000", "111335.216000", "111335.219000", "111335.222000", "111335.225000", "111335.228000", "111335.231000", "111335.233000", "111340.216000", "111340.219000", "111340.222000", "111340.225000", "111340.228000", "111340.230000", "111340.233000", "111345.216000", "111345.219000", "111345.222000", "111345.225000", "111345.228000", "111345.231000", "111345.234000", "111350.217000", "111350.220000", "111350.223000", "111350.226000", "111350.229000", "111350.232000", "111350.234000", "111355.216000", "111355.219000", "111355.222000", "111355.225000", "111355.228000", "111355.230000", "111355.233000", "111400.216000", "111400.219000", "111400.222000", "111400.225000", "111400.228000", "111400.230000", "111400.233000", "111405.229000", "111405.232000", "111405.235000", "111405.238000", "111405.241000", "111405.244000", "111405.247000", "111410.216000", "111410.219000", "111410.222000", "111410.224000", "111410.227000", "111410.230000", "111410.233000", "111410.236000", "111415.216000", "111415.219000", "111415.222000", "111415.224000", "111415.227000", "111415.230000", "111415.233000", "111420.216000", "111420.219000", "111420.222000", "111420.225000", "111420.228000", "111425.217000", "111425.220000", "111425.223000", "111425.226000", "111425.228000", "111430.216000", "111430.219000", "111430.222000", "111430.225000", "111430.228000", "111435.216000", "111435.219000", "111435.222000", "111435.225000", "111435.228000", "111440.216000", "111440.219000", "111440.222000", "111440.225000", "111440.228000", "111445.216000", "111445.219000", "111445.222000", "111445.225000", "111445.228000", "111450.216000", "111450.219000", "111450.222000", "111450.224000", "111450.227000", "111455.216000", "111455.219000", "111455.222000", "111455.225000", "111455.228000", "111500.217000", "111500.220000", "111500.223000", "111500.226000", "111500.229000", "111505.216000", "111505.219000", "111505.222000", "111505.225000", "111505.228000", "111510.216000", "111510.219000", "111510.222000", "111510.225000", "111510.228000", "111515.216000", "111515.219000", "111515.222000", "111515.225000", "111515.228000", "111520.216000", "111520.219000", "111520.222000", "111520.225000", "111520.227000", "111525.216000", "111525.219000", "111525.222000", "111525.225000", "111525.228000", "111530.216000", "111530.219000", "111530.222000", "111530.225000", "111530.227000", "111535.217000", "111535.220000", "111535.223000", "111535.226000", "111535.229000", "111540.216000", "111540.219000", "111540.222000", "111540.224000", "111540.227000", "111545.216000", "111545.219000", "111545.222000", "111545.225000", "111545.227000", "111549.578000", "111549.582000", "111549.587000", "111549.592000", "111549.595000"],
      "InstanceNumber": [1, 2, 3, 4, 5, 6, 7, 8, 9, 10, 11, 12, 13, 14, 15, 16, 17, 18, 19, 20, 21, 22, 23, 24, 25, 26, 27, 28, 29, 30, 31, 32, 33, 34, 35, 36, 37, 38, 39, 40, 41, 42, 43, 44, 45, 46, 47, 48, 49, 50, 51, 52, 53, 54, 55, 56, 57, 58, 59, 60, 61, 62, 63, 64, 65, 66, 67, 68, 69, 70, 71, 72, 73, 74, 75, 76, 77, 78, 79, 80, 81, 82, 83, 84, 85, 86, 87, 88, 89, 90, 91, 92, 93, 94, 95, 96, 97, 98, 99, 100, 101, 102, 103, 104, 105, 106, 107, 108, 109, 110, 111, 112, 113, 114, 115, 116, 117, 118, 119, 120, 121, 122, 123, 124, 125, 126, 127, 128, 129, 130, 131, 132, 133, 134, 135, 136, 137, 138, 139, 140, 141, 142, 143, 144, 145, 146, 147, 148, 149, 150, 151, 152, 153, 154, 155, 156, 157, 158, 159, 160, 161, 162, 163, 164, 165, 166, 167, 168, 169, 170, 171, 172, 173, 174, 175, 176, 177, 178, 179, 180, 181, 182, 183, 184, 185, 186, 187, 188, 189, 190, 191, 192, 193, 194, 195, 196, 197, 198, 199, 200, 201, 202, 203, 204, 205, 206, 207, 208, 209, 210, 211, 212, 213, 214, 215, 216, 217, 218, 219, 220, 221, 222, 223, 224, 225, 226, 227, 228, 229, 230, 231, 232, 233, 234, 235, 236, 237, 238, 239, 240, 241, 242, 243, 244, 245, 246, 247, 248, 249, 250, 251, 252, 253, 254, 255, 256, 257, 258, 259, 260, 261, 262, 263, 264],
      "LargestImagePixelValue": [31422, 31229, 30711, 30047, 29928, 29589, 30023, 29410, 30071, 29744, 29461, 29972, 29850, 29824, 29561, 29238, 29416, 29525, 29487, 30020, 29270, 29491, 29458, 29473, 28861, 28983, 29214, 28938, 29159, 29311, 29281, 29175, 29228, 29199, 29551, 29580, 30007, 29844, 30357, 29982, 29832, 30102, 29770, 30569, 30212, 30439, 30764, 29989, 30702, 30311, 30193, 30599, 30721, 30514, 30182, 30297, 30504, 30670, 30561, 31007, 30447, 30727, 30807, 30847, 30753, 30610, 31059, 30866, 30801, 30787, 30617, 30619, 30948, 31017, 30815, 30885, 30765, 30691, 30937, 30971, 30725, 31222, 30908, 30687, 31268, 30794, 30580, 30899, 30889, 30897, 30678, 31186, 30551, 30647, 30633, 30437, 30555, 30075, 30833, 30869, 30635, 30950, 30735, 31131, 31211, 31012, 30776, 30664, 30882, 30520, 31149, 30778, 31029, 31231, 30961, 30437, 31318, 30654, 30865, 30985, 31060, 31081, 31144, 31111, 31121, 31075, 30833, 31116, 30810, 31038, 31088, 31369, 30718, 31172, 31009, 30787, 30841, 30589, 30634, 30808, 31207, 30981, 31012, 31078, 31194, 30284, 30367, 31004, 30843, 30675, 30802, 30540, 30831, 30635, 30946, 30735, 30642, 30609, 30906, 30704, 31081, 30858, 30355, 30181, 30270, 30778, 31044, 30513, 30981, 30733, 31069, 30947, 31146, 30678, 30324, 30396, 31039, 30430, 31204, 30217, 30639, 30943, 30908, 30941, 30674, 30683, 30735, 30517, 30692, 30659, 30281, 30251, 30528, 31172, 30579, 30206, 30086, 30356, 30072, 30621, 30635, 30746, 30673, 30478, 30637, 30433, 30386, 30659, 30758, 30623, 30539, 30475, 30709, 31016, 30832, 30571, 30512, 30652, 31283, 31053, 31259, 30882, 31334, 31177, 30858, 31393, 31123, 31504, 30841, 30575, 31192, 31192, 31218, 30884, 30873, 30650, 30246, 30750, 30419, 30867, 30759, 30724, 30527, 30706, 30551, 30664, 30115, 30529, 30283, 30344, 30183, 30125, 30580, 30443, 29927, 30571, 30349, 30409, 30776, 30384, 30801, 30155, 30832, 30416],
      "WindowCenter": [9093.0, 9069.0, 9044.0, 9030.0, 9028.0, 9006.0, 9010.0, 9004.0, 9010.0, 9000.0, 9001.0, 9016.0, 9018.0, 9027.0, 9021.0, 9017.0, 9022.0, 9031.0, 9033.0, 9043.0, 9026.0, 9032.0, 9040.0, 9042.0, 9030.0, 9027.0, 9025.0, 9018.0, 9024.0, 9029.0, 9025.0, 9025.0, 9026.0, 9033.0, 9047.0, 9061.0, 9084.0, 9075.0, 9071.0, 9048.0, 9032.0, 9044.0, 9047.0, 9068.0, 9065.0, 9069.0, 9075.0, 9055.0, 9067.0, 9060.0, 9053.0, 9059.0, 9051.0, 9050.0, 9051.0, 9058.0, 9059.0, 9068.0, 9066.0, 9064.0, 9043.0, 9056.0, 9057.0, 9057.0, 9058.0, 9050.0, 9056.0, 9040.0, 9041.0, 9056.0, 9066.0, 9077.0, 9084.0, 9075.0, 9058.0, 9056.0, 9041.0, 9048.0, 9046.0, 9062.0, 9066.0, 9079.0, 9081.0, 9075.0, 9081.0, 9060.0, 9058.0, 9057.0, 9054.0, 9056.0, 9050.0, 9062.0, 9059.0, 9065.0, 9057.0, 9052.0, 9061.0, 9055.0, 9068.0, 9076.0, 9070.0, 9076.0, 9075.0, 9073.0, 9072.0, 9057.0, 9057.0, 9058.0, 9064.0, 9051.0, 9057.0, 9057.0, 9057.0, 9062.0, 9048.0, 9036.0, 9061.0, 9042.0, 9048.0, 9055.0, 9048.0, 9049.0, 9055.0, 9056.0, 9056.0, 9056.0, 9065.0, 9073.0, 9067.0, 9074.0, 9074.0, 9072.0, 9067.0, 9066.0, 9057.0, 9056.0, 9056.0, 9050.0, 9058.0, 9057.0, 9062.0, 9063.0, 9063.0, 9057.0, 9047.0, 9023.0, 9032.0, 9052.0, 9057.0, 9059.0, 9066.0, 9050.0, 9049.0, 9049.0, 9056.0, 9057.0, 9051.0, 9051.0, 9056.0, 9050.0, 9055.0, 9048.0, 9036.0, 9043.0, 9049.0, 9047.0, 9053.0, 9050.0, 9064.0, 9059.0, 9065.0, 9056.0, 9054.0, 9041.0, 9038.0, 9038.0, 9045.0, 9030.0, 9042.0, 9031.0, 9037.0, 9051.0, 9053.0, 9046.0, 9047.0, 9045.0, 9030.0, 9023.0, 9029.0, 9036.0, 9031.0, 9031.0, 9022.0, 9033.0, 9027.0, 9022.0, 9031.0, 9037.0, 9024.0, 9037.0, 9037.0, 9045.0, 9046.0, 9033.0, 9048.0, 9040.0, 9040.0, 9040.0, 9038.0, 9036.0, 9031.0, 9022.0, 9036.0, 9043.0, 9044.0, 9048.0, 9051.0, 9074.0, 9088.0, 9071.0, 9061.0, 9046.0, 9046.0, 9045.0, 9041.0, 9054.0, 9053.0, 9060.0, 9048.0, 9049.0, 9055.0, 9045.0, 9050.0, 9043.0, 9030.0, 9037.0, 9023.0, 9038.0, 9040.0, 9055.0, 9056.0, 9047.0, 9034.0, 9037.0, 9023.0, 9036.0, 9024.0, 9031.0, 9039.0, 9039.0, 9041.0, 9033.0, 9037.0, 9022.0, 9006.0, 9025.0, 9021.0, 9039.0, 9047.0, 9049.0, 9047.0, 9033.0, 9038.0, 9030.0],
      "WindowWidth": [19282.0, 19210.0, 19151.0, 19121.0, 19114.0, 19070.0, 19076.0, 19066.0, 19072.0, 19053.0, 19055.0, 19082.0, 19092.0, 19109.0, 19100.0, 19095.0, 19103.0, 19123.0, 19128.0, 19142.0, 19117.0, 19128.0, 19145.0, 19152.0, 19132.0, 19123.0, 19114.0, 19102.0, 19110.0, 19119.0, 19113.0, 19113.0, 19117.0, 19130.0, 19156.0, 19188.0, 19235.0, 19215.0, 19200.0, 19156.0, 19125.0, 19147.0, 19156.0, 19198.0, 19194.0, 19199.0, 19207.0, 19172.0, 19191.0, 19177.0, 19164.0, 19174.0, 19157.0, 19157.0, 19159.0, 19172.0, 19175.0, 19192.0, 19187.0, 19177.0, 19139.0, 19162.0, 19165.0, 19166.0, 19169.0, 19155.0, 19163.0, 19133.0, 19134.0, 19166.0, 19188.0, 19216.0, 19226.0, 19205.0, 19169.0, 19160.0, 19136.0, 19145.0, 19142.0, 19176.0, 19188.0, 19211.0, 19217.0, 19209.0, 19214.0, 19177.0, 19170.0, 19167.0, 19157.0, 19163.0, 19155.0, 19178.0, 19172.0, 19181.0, 19165.0, 19160.0, 19181.0, 19171.0, 19197.0, 19210.0, 19199.0, 19213.0, 19207.0, 19201.0, 19195.0, 19165.0, 19168.0, 19171.0, 19179.0, 19156.0, 19167.0, 19166.0, 19164.0, 19172.0, 19144.0, 19126.0, 19171.0, 19137.0, 19147.0, 19160.0, 19149.0, 19153.0, 19162.0, 19165.0, 19164.0, 19162.0, 19184.0, 19199.0, 19188.0, 19203.0, 19202.0, 19198.0, 19190.0, 19185.0, 19164.0, 19162.0, 19161.0, 19154.0, 19171.0, 19165.0, 19175.0, 19176.0, 19175.0, 19167.0, 19143.0, 19094.0, 19111.0, 19152.0, 19168.0, 19173.0, 19187.0, 19155.0, 19152.0, 19151.0, 19162.0, 19166.0, 19156.0, 19156.0, 19165.0, 19154.0, 19162.0, 19148.0, 19131.0, 19144.0, 19149.0, 19145.0, 19154.0, 19155.0, 19181.0, 19175.0, 19182.0, 19164.0, 19155.0, 19136.0, 19127.0, 19128.0, 19139.0, 19110.0, 19128.0, 19114.0, 19124.0, 19150.0, 19156.0, 19144.0, 19146.0, 19138.0, 19109.0, 19095.0, 19105.0, 19119.0, 19113.0, 19113.0, 19092.0, 19110.0, 19099.0, 19094.0, 19115.0, 19124.0, 19100.0, 19123.0, 19121.0, 19138.0, 19141.0, 19118.0, 19146.0, 19132.0, 19134.0, 19131.0, 19123.0, 19120.0, 19111.0, 19094.0, 19121.0, 19132.0, 19137.0, 19149.0, 19159.0, 19207.0, 19229.0, 19191.0, 19169.0, 19138.0, 19140.0, 19137.0, 19136.0, 19157.0, 19157.0, 19169.0, 19148.0, 19154.0, 19161.0, 19138.0, 19145.0, 19132.0, 19111.0, 19121.0, 19094.0, 19125.0, 19132.0, 19161.0, 19163.0, 19143.0, 19122.0, 19122.0, 19098.0, 19121.0, 19100.0, 19115.0, 19126.0, 19128.0, 19132.0, 19116.0, 19118.0, 19091.0, 19060.0, 19089.0, 19089.0, 19129.0, 19145.0, 19151.0, 19144.0, 19118.0, 19123.0, 19106.0]
    },
    "slices": {}
  }
}