{
  "AcquisitionMatrixPE": 104,
  "AcquisitionNumber": 1,
  "AcquisitionTime": "11:06:37.555000",
  "BandwidthPerPixelPhaseEncode": 16.578,
  "BaseResolution": 104,
  "BodyPartExamined": "BRAIN",
  "ConsistencyInfo": "N4_VE11C_LATEST_20160120",
  "ConversionSoftware": "dcm2niix",
  "ConversionSoftwareVersion": "v1.0.20190410  GCC6.3.0",
  "DerivedVendorReportedEchoSpacing": 0.000580009,
  "DeviceSerialNumber": "166018",
  "DwellTime": 2.1e-06,
  "EchoTime": 0.037,
  "EchoTrainLength": 104,
  "EffectiveEchoSpacing": 0.000580009,
  "FlipAngle": 68,
  "ImageComments": "Unaliased_MB6_PE3_LB",
  "ImageOrientationPatientDICOM": [0.99899, 0.0441731, -0.00825844, -0.0448397, 0.991993, -0.118064],
  "ImageType": [
    "ORIGINAL",
    "PRIMARY",
    "M",
    "MB",
    "ND",
    "MOSAIC"
],
  "ImagingFrequency": 123.191,
  "InPlanePhaseEncodingDirectionDICOM": "COL",
  "InstitutionAddress": "Washington_Place_6_NYC_NYC_US_10003",
  "InstitutionName": "NYU_Center_for_Brain_Imaging",
  "InstitutionalDepartmentName": "Department",
  "MRAcquisitionType": "2D",
  "MagneticFieldStrength": 3,
  "Manufacturer": "Siemens",
  "ManufacturersModelName": "Prisma",
  "Modality": "MR",
  "MultibandAccelerationFactor": 6,
  "PartialFourier": 1,
  "PatientPosition": "HFS",
  "PercentPhaseFOV": 100,
  "PhaseEncodingDirection": "j",
  "PhaseEncodingSteps": 104,
  "PhaseResolution": 1,
  "PixelBandwidth": 2290,
  "ProcedureStepDescription": "Investigators_Winawer",
  "ProtocolName": "task-sfprescaled_cmrr_mbepi_s6_2mm_66sl_PA_TR1.0",
  "PulseSequenceDetails": "%CustomerSeq%_cmrr_mbep2d_bold",
  "ReceiveCoilActiveElements": "HC1-7",
  "ReceiveCoilName": "HeadNeck_64",
  "ReconMatrixPE": 104,
  "RepetitionTime": 1,
  "SAR": 0.0851353,
  "ScanOptions": "FS",
  "ScanningSequence": "EP",
  "SequenceName": "epfid2d1_104",
  "SequenceVariant": "SK_SS",
  "SeriesDescription": "task-sfprescaled_cmrr_mbepi_s6_2mm_66sl_PA_TR1.0",
  "SeriesNumber": 22,
  "ShimSetting": [265, -12635, -8448, 454, 41, -196, 58, -2],
  "SliceThickness": 2,
  "SliceTiming": [0, 0.5325, 0.0875, 0.6225, 0.1775, 0.7125, 0.265, 0.8, 0.355, 0.89, 0.445, 0, 0.5325, 0.0875, 0.6225, 0.1775, 0.7125, 0.265, 0.8, 0.355, 0.89, 0.445, 0, 0.5325, 0.0875, 0.6225, 0.1775, 0.7125, 0.265, 0.8, 0.355, 0.89, 0.445, 0, 0.5325, 0.0875, 0.6225, 0.1775, 0.7125, 0.265, 0.8, 0.355, 0.89, 0.445, 0, 0.5325, 0.0875, 0.6225, 0.1775, 0.7125, 0.265, 0.8, 0.355, 0.89, 0.445, 0, 0.5325, 0.0875, 0.6225, 0.1775, 0.7125, 0.265, 0.8, 0.355, 0.89, 0.445],
  "SoftwareVersions": "syngo_MR_E11",
  "SpacingBetweenSlices": 2,
  "StationName": "AWP166018",
  "TaskName": "sfprescaled",
  "TotalReadoutTime": 0.0597409,
  "TxRefAmp": 241.817,
  "WipMemBlock": "40e01c15-de40-4781-af55-74e21a0ded8a||Sequence: R016 ve11c/master r/8780670; Nov 27 2017 15:05:12 by eja",
  "dcmmeta_affine": [
    [-1.9979795217514038, -0.08967939764261246, -0.005954112391918898, 114.80790710449219],
    [-0.08834613114595413, 1.9839861392974854, -0.23663045465946198, -70.72012329101562],
    [-0.016516877338290215, 0.23612840473651886, 1.9859431982040405, -61.84959030151367],
    [0.0, 0.0, 0.0, 1.0]
],
  "dcmmeta_reorient_transform": [
    [0.0, -1.0, 0.0, 103.0],
    [1.0, 0.0, 0.0, 0.0],
    [0.0, 0.0, 1.0, 0.0],
    [0.0, 0.0, 0.0, 1.0]
],
  "dcmmeta_shape": [104, 104, 66, 264],
  "dcmmeta_slice_dim": 2,
  "dcmmeta_version": 0.6,
  "global": {
    "const": {
      "AccessionNumber": "jtu8gsdq",
  "NumberOfVolumes": 264,
      "AcquisitionMatrix": [104, 0, 0, 104],
      "AngioFlag": "N",
      "BitsAllocated": 16,
      "BitsStored": 16,
      "BodyPartExamined": "BRAIN",
      "Columns": 936,
      "EchoNumbers": 1,
      "EchoTime": 37.0,
      "EchoTrainLength": 104,
      "FlipAngle": 68.0,
      "HighBit": 15,
      "ImageOrientationPatient": [0.99898975894172, 0.04417306557246, -0.0082584385629, -0.0448396996635, 0.99199306765871, -0.1180641988545],
      "ImagePositionPatient": [-899.42377471357, -995.7206699396, 67.572068365146],
      "ImageType": [
        "ORIGINAL",
        "PRIMARY",
        "M",
        "MB",
        "ND",
        "MOSAIC"
],
      "ImagedNucleus": "1H",
      "ImagingFrequency": 123.191083,
      "InPlanePhaseEncodingDirection": "COL",
      "MRAcquisitionType": "2D",
      "MagneticFieldStrength": 3.0,
      "Manufacturer": "SIEMENS",
      "ManufacturerModelName": "Prisma",
      "Modality": "MR",
      "NumberOfAverages": 1.0,
      "NumberOfPhaseEncodingSteps": 104,
      "PercentPhaseFieldOfView": 100.0,
      "PercentSampling": 100.0,
      "PerformedProcedureStepStartTime": "102049.080000",
      "PhotometricInterpretation": "MONOCHROME2",
      "PixelBandwidth": 2290.0,
      "PixelRepresentation": 0,
      "PixelSpacing": [2.0, 2.0],
      "ProtocolName": "task-sfprescaled_cmrr_mbepi_s6_2mm_66sl_PA_TR1.0",
      "RepetitionTime": 1000.0,
      "Rows": 936,
      "SAR": 0.0851353274562,
      "SamplesPerPixel": 1,
      "ScanOptions": "FS",
      "ScanningSequence": "EP",
      "SequenceName": "epfid2d1_104",
      "SequenceVariant": [
        "SK",
        "SS"
],
      "SeriesDescription": "task-sfprescaled_cmrr_mbepi_s6_2mm_66sl_PA_TR1.0",
      "SeriesNumber": 22,
      "SeriesTime": "110737.955000",
      "SliceLocation": -53.389410300267,
      "SliceThickness": 2.0,
      "SmallestImagePixelValue": 0,
      "SoftwareVersions": "syngo MR E11",
      "SpacingBetweenSlices": 1.999999945276,
      "SpecificCharacterSet": "ISO_IR 100",
      "StudyID": "1",
      "StudyTime": "102049.028000",
      "TransmitCoilName": "Body",
      "VariableFlipAngleFlag": "N",
      "WindowCenterWidthExplanation": "Algo1",
      "dBdt": 0.0},
    "slices": {}
  },
  "time": {
    "samples": {
      "AcquisitionNumber": [1, 2, 3, 4, 5, 6, 7, 8, 9, 10, 11, 12, 13, 14, 15, 16, 17, 18, 19, 20, 21, 22, 23, 24, 25, 26, 27, 28, 29, 30, 31, 32, 33, 34, 35, 36, 37, 38, 39, 40, 41, 42, 43, 44, 45, 46, 47, 48, 49, 50, 51, 52, 53, 54, 55, 56, 57, 58, 59, 60, 61, 62, 63, 64, 65, 66, 67, 68, 69, 70, 71, 72, 73, 74, 75, 76, 77, 78, 79, 80, 81, 82, 83, 84, 85, 86, 87, 88, 89, 90, 91, 92, 93, 94, 95, 96, 97, 98, 99, 100, 101, 102, 103, 104, 105, 106, 107, 108, 109, 110, 111, 112, 113, 114, 115, 116, 117, 118, 119, 120, 121, 122, 123, 124, 125, 126, 127, 128, 129, 130, 131, 132, 133, 134, 135, 136, 137, 138, 139, 140, 141, 142, 143, 144, 145, 146, 147, 148, 149, 150, 151, 152, 153, 154, 155, 156, 157, 158, 159, 160, 161, 162, 163, 164, 165, 166, 167, 168, 169, 170, 171, 172, 173, 174, 175, 176, 177, 178, 179, 180, 181, 182, 183, 184, 185, 186, 187, 188, 189, 190, 191, 192, 193, 194, 195, 196, 197, 198, 199, 200, 201, 202, 203, 204, 205, 206, 207, 208, 209, 210, 211, 212, 213, 214, 215, 216, 217, 218, 219, 220, 221, 222, 223, 224, 225, 226, 227, 228, 229, 230, 231, 232, 233, 234, 235, 236, 237, 238, 239, 240, 241, 242, 243, 244, 245, 246, 247, 248, 249, 250, 251, 252, 253, 254, 255, 256, 257, 258, 259, 260, 261, 262, 263, 264],
      "AcquisitionTime": ["110637.555000", "110638.555000", "110639.555000", "110640.555000", "110641.555000", "110642.555000", "110643.555000", "110644.555000", "110645.555000", "110646.555000", "110647.555000", "110648.555000", "110649.555000", "110650.555000", "110651.555000", "110652.555000", "110653.555000", "110654.555000", "110655.555000", "110656.555000", "110657.555000", "110658.555000", "110659.555000", "110700.555000", "110701.555000", "110702.555000", "110703.555000", "110704.555000", "110705.555000", "110706.555000", "110707.555000", "110708.555000", "110709.555000", "110710.555000", "110711.555000", "110712.555000", "110713.555000", "110714.555000", "110715.555000", "110716.555000", "110717.555000", "110718.555000", "110719.555000", "110720.555000", "110721.555000", "110722.555000", "110723.555000", "110724.555000", "110725.555000", "110726.555000", "110727.555000", "110728.555000", "110729.555000", "110730.555000", "110731.555000", "110732.555000", "110733.555000", "110734.555000", "110735.555000", "110736.555000", "110737.555000", "110738.555000", "110739.555000", "110740.555000", "110741.555000", "110742.555000", "110743.555000", "110744.555000", "110745.555000", "110746.555000", "110747.555000", "110748.555000", "110749.555000", "110750.555000", "110751.555000", "110752.555000", "110753.555000", "110754.555000", "110755.555000", "110756.555000", "110757.555000", "110758.555000", "110759.555000", "110800.555000", "110801.555000", "110802.555000", "110803.555000", "110804.555000", "110805.555000", "110806.555000", "110807.555000", "110808.555000", "110809.555000", "110810.555000", "110811.555000", "110812.555000", "110813.555000", "110814.555000", "110815.555000", "110816.555000", "110817.555000", "110818.555000", "110819.555000", "110820.555000", "110821.555000", "110822.555000", "110823.555000", "110824.555000", "110825.555000", "110826.555000", "110827.555000", "110828.555000", "110829.555000", "110830.555000", "110831.555000", "110832.555000", "110833.555000", "110834.555000", "110835.555000", "110836.555000", "110837.555000", "110838.555000", "110839.555000", "110840.555000", "110841.555000", "110842.555000", "110843.555000", "110844.555000", "110845.555000", "110846.555000", "110847.555000", "110848.555000", "110849.555000", "110850.555000", "110851.555000", "110852.555000", "110853.555000", "110854.555000", "110855.555000", "110856.555000", "110857.555000", "110858.555000", "110859.555000", "110900.555000", "110901.555000", "110902.555000", "110903.555000", "110904.555000", "110905.555000", "110906.555000", "110907.555000", "110908.555000", "110909.555000", "110910.555000", "110911.555000", "110912.555000", "110913.555000", "110914.555000", "110915.555000", "110916.555000", "110917.555000", "110918.555000", "110919.555000", "110920.555000", "110921.555000", "110922.555000", "110923.555000", "110924.555000", "110925.555000", "110926.555000", "110927.555000", "110928.555000", "110929.555000", "110930.555000", "110931.555000", "110932.555000", "110933.555000", "110934.555000", "110935.555000", "110936.555000", "110937.555000", "110938.555000", "110939.555000", "110940.555000", "110941.555000", "110942.555000", "110943.555000", "110944.555000", "110945.555000", "110946.555000", "110947.555000", "110948.555000", "110949.555000", "110950.555000", "110951.555000", "110952.555000", "110953.555000", "110954.555000", "110955.555000", "110956.555000", "110957.555000", "110958.555000", "110959.555000", "111000.555000", "111001.555000", "111002.555000", "111003.555000", "111004.555000", "111005.555000", "111006.555000", "111007.555000", "111008.555000", "111009.555000", "111010.555000", "111011.555000", "111012.555000", "111013.555000", "111014.555000", "111015.555000", "111016.555000", "111017.555000", "111018.555000", "111019.555000", "111020.555000", "111021.555000", "111022.555000", "111023.555000", "111024.555000", "111025.555000", "111026.555000", "111027.555000", "111028.555000", "111029.555000", "111030.555000", "111031.555000", "111032.555000", "111033.555000", "111034.555000", "111035.555000", "111036.555000", "111037.555000", "111038.555000", "111039.555000", "111040.555000", "111041.555000", "111042.555000", "111043.555000", "111044.555000", "111045.555000", "111046.555000", "111047.555000", "111048.555000", "111049.555000", "111050.555000", "111051.555000", "111052.555000", "111053.555000", "111054.555000", "111055.555000", "111056.555000", "111057.555000", "111058.555000", "111059.555000", "111100.555000"],
      "ContentTime": ["110737.957000", "110737.970000", "110737.972000", "110737.975000", "110737.978000", "110737.981000", "110737.984000", "110742.957000", "110742.960000", "110742.963000", "110742.966000", "110742.969000", "110742.972000", "110742.975000", "110747.957000", "110747.960000", "110747.963000", "110747.966000", "110747.969000", "110747.972000", "110747.975000", "110752.957000", "110752.960000", "110752.963000", "110752.966000", "110752.969000", "110752.972000", "110752.975000", "110757.956000", "110757.959000", "110757.962000", "110757.965000", "110757.968000", "110757.971000", "110757.974000", "110802.957000", "110802.960000", "110802.963000", "110802.966000", "110802.969000", "110802.972000", "110802.975000", "110807.957000", "110807.960000", "110807.963000", "110807.966000", "110807.969000", "110807.972000", "110807.988000", "110812.956000", "110812.959000", "110812.962000", "110812.965000", "110812.968000", "110812.971000", "110812.974000", "110817.957000", "110817.960000", "110817.963000", "110817.966000", "110817.969000", "110817.972000", "110817.975000", "110822.957000", "110822.960000", "110822.963000", "110822.966000", "110822.969000", "110822.972000", "110822.975000", "110827.957000", "110827.960000", "110827.963000", "110827.966000", "110827.969000", "110827.972000", "110827.975000", "110832.956000", "110832.960000", "110832.963000", "110832.966000", "110832.978000", "110832.981000", "110832.984000", "110837.957000", "110837.960000", "110837.963000", "110837.966000", "110837.969000", "110837.972000", "110837.975000", "110842.957000", "110842.960000", "110842.963000", "110842.966000", "110842.969000", "110842.972000", "110842.974000", "110842.977000", "110847.956000", "110847.959000", "110847.962000", "110847.965000", "110847.968000", "110847.971000", "110847.974000", "110852.957000", "110852.960000", "110852.963000", "110852.966000", "110852.969000", "110852.971000", "110852.974000", "110857.957000", "110857.960000", "110857.963000", "110857.966000", "110857.969000", "110857.971000", "110857.974000", "110902.957000", "110902.960000", "110902.963000", "110902.966000", "110902.969000", "110902.971000", "110902.974000", "110907.956000", "110907.959000", "110907.962000", "110907.965000", "110907.968000", "110907.971000", "110907.974000", "110912.957000", "110912.960000", "110912.963000", "110912.966000", "110912.969000", "110912.972000", "110912.975000", "110917.957000", "110917.960000", "110917.963000", "110917.966000", "110917.969000", "110917.972000", "110917.975000", "110922.956000", "110922.959000", "110922.962000", "110922.965000", "110922.968000", "110922.971000", "110922.974000", "110927.957000", "110927.960000", "110927.963000", "110927.966000", "110927.969000", "110927.972000", "110927.975000", "110932.957000", "110932.960000", "110932.963000", "110932.966000", "110932.969000", "110932.972000", "110932.975000", "110937.957000", "110937.960000", "110937.963000", "110937.966000", "110937.969000", "110937.972000", "110937.975000", "110942.956000", "110942.959000", "110942.962000", "110942.965000", "110942.968000", "110942.971000", "110942.974000", "110947.957000", "110947.960000", "110947.963000", "110947.966000", "110947.969000", "110947.972000", "110952.957000", "110952.960000", "110952.963000", "110952.966000", "110952.969000", "110957.956000", "110957.959000", "110957.962000", "110957.965000", "110957.968000", "111002.957000", "111002.960000", "111002.963000", "111002.966000", "111002.969000", "111007.957000", "111007.960000", "111007.963000", "111007.966000", "111007.969000", "111012.957000", "111012.960000", "111012.963000", "111012.966000", "111012.969000", "111017.956000", "111017.959000", "111017.962000", "111017.965000", "111017.967000", "111022.957000", "111022.960000", "111022.963000", "111022.966000", "111022.969000", "111027.957000", "111027.960000", "111027.963000", "111027.966000", "111027.969000", "111032.956000", "111032.959000", "111032.962000", "111032.965000", "111032.968000", "111037.970000", "111037.973000", "111037.976000", "111037.979000", "111037.982000", "111042.957000", "111042.960000", "111042.963000", "111042.966000", "111042.969000", "111047.957000", "111047.960000", "111047.963000", "111047.966000", "111047.969000", "111052.956000", "111052.959000", "111052.962000", "111052.965000", "111052.968000", "111057.957000", "111057.960000", "111057.963000", "111057.966000", "111057.969000", "111102.323000", "111102.327000", "111102.330000", "111102.333000", "111102.336000"],
      "InstanceCreationTime": ["110737.957000", "110737.970000", "110737.972000", "110737.975000", "110737.978000", "110737.981000", "110737.984000", "110742.957000", "110742.960000", "110742.963000", "110742.966000", "110742.969000", "110742.972000", "110742.975000", "110747.957000", "110747.960000", "110747.963000", "110747.966000", "110747.969000", "110747.972000", "110747.975000", "110752.957000", "110752.960000", "110752.963000", "110752.966000", "110752.969000", "110752.972000", "110752.975000", "110757.956000", "110757.959000", "110757.962000", "110757.965000", "110757.968000", "110757.971000", "110757.974000", "110802.957000", "110802.960000", "110802.963000", "110802.966000", "110802.969000", "110802.972000", "110802.975000", "110807.957000", "110807.960000", "110807.963000", "110807.966000", "110807.969000", "110807.972000", "110807.988000", "110812.956000", "110812.959000", "110812.962000", "110812.965000", "110812.968000", "110812.971000", "110812.974000", "110817.957000", "110817.960000", "110817.963000", "110817.966000", "110817.969000", "110817.972000", "110817.975000", "110822.957000", "110822.960000", "110822.963000", "110822.966000", "110822.969000", "110822.972000", "110822.975000", "110827.957000", "110827.960000", "110827.963000", "110827.966000", "110827.969000", "110827.972000", "110827.975000", "110832.956000", "110832.960000", "110832.963000", "110832.966000", "110832.978000", "110832.981000", "110832.984000", "110837.957000", "110837.960000", "110837.963000", "110837.966000", "110837.969000", "110837.972000", "110837.975000", "110842.957000", "110842.960000", "110842.963000", "110842.966000", "110842.969000", "110842.972000", "110842.974000", "110842.977000", "110847.956000", "110847.959000", "110847.962000", "110847.965000", "110847.968000", "110847.971000", "110847.974000", "110852.957000", "110852.960000", "110852.963000", "110852.966000", "110852.969000", "110852.971000", "110852.974000", "110857.957000", "110857.960000", "110857.963000", "110857.966000", "110857.969000", "110857.971000", "110857.974000", "110902.957000", "110902.960000", "110902.963000", "110902.966000", "110902.969000", "110902.971000", "110902.974000", "110907.956000", "110907.959000", "110907.962000", "110907.965000", "110907.968000", "110907.971000", "110907.974000", "110912.957000", "110912.960000", "110912.963000", "110912.966000", "110912.969000", "110912.972000", "110912.975000", "110917.957000", "110917.960000", "110917.963000", "110917.966000", "110917.969000", "110917.972000", "110917.975000", "110922.956000", "110922.959000", "110922.962000", "110922.965000", "110922.968000", "110922.971000", "110922.974000", "110927.957000", "110927.960000", "110927.963000", "110927.966000", "110927.969000", "110927.972000", "110927.975000", "110932.957000", "110932.960000", "110932.963000", "110932.966000", "110932.969000", "110932.972000", "110932.975000", "110937.957000", "110937.960000", "110937.963000", "110937.966000", "110937.969000", "110937.972000", "110937.975000", "110942.956000", "110942.959000", "110942.962000", "110942.965000", "110942.968000", "110942.971000", "110942.974000", "110947.957000", "110947.960000", "110947.963000", "110947.966000", "110947.969000", "110947.972000", "110952.957000", "110952.960000", "110952.963000", "110952.966000", "110952.969000", "110957.956000", "110957.959000", "110957.962000", "110957.965000", "110957.968000", "111002.957000", "111002.960000", "111002.963000", "111002.966000", "111002.969000", "111007.957000", "111007.960000", "111007.963000", "111007.966000", "111007.969000", "111012.957000", "111012.960000", "111012.963000", "111012.966000", "111012.969000", "111017.956000", "111017.959000", "111017.962000", "111017.965000", "111017.967000", "111022.957000", "111022.960000", "111022.963000", "111022.966000", "111022.969000", "111027.957000", "111027.960000", "111027.963000", "111027.966000", "111027.969000", "111032.956000", "111032.959000", "111032.962000", "111032.965000", "111032.968000", "111037.970000", "111037.973000", "111037.976000", "111037.979000", "111037.982000", "111042.957000", "111042.960000", "111042.963000", "111042.966000", "111042.969000", "111047.957000", "111047.960000", "111047.963000", "111047.966000", "111047.969000", "111052.956000", "111052.959000", "111052.962000", "111052.965000", "111052.968000", "111057.957000", "111057.960000", "111057.963000", "111057.966000", "111057.969000", "111102.323000", "111102.327000", "111102.330000", "111102.333000", "111102.336000"],
      "InstanceNumber": [1, 2, 3, 4, 5, 6, 7, 8, 9, 10, 11, 12, 13, 14, 15, 16, 17, 18, 19, 20, 21, 22, 23, 24, 25, 26, 27, 28, 29, 30, 31, 32, 33, 34, 35, 36, 37, 38, 39, 40, 41, 42, 43, 44, 45, 46, 47, 48, 49, 50, 51, 52, 53, 54, 55, 56, 57, 58, 59, 60, 61, 62, 63, 64, 65, 66, 67, 68, 69, 70, 71, 72, 73, 74, 75, 76, 77, 78, 79, 80, 81, 82, 83, 84, 85, 86, 87, 88, 89, 90, 91, 92, 93, 94, 95, 96, 97, 98, 99, 100, 101, 102, 103, 104, 105, 106, 107, 108, 109, 110, 111, 112, 113, 114, 115, 116, 117, 118, 119, 120, 121, 122, 123, 124, 125, 126, 127, 128, 129, 130, 131, 132, 133, 134, 135, 136, 137, 138, 139, 140, 141, 142, 143, 144, 145, 146, 147, 148, 149, 150, 151, 152, 153, 154, 155, 156, 157, 158, 159, 160, 161, 162, 163, 164, 165, 166, 167, 168, 169, 170, 171, 172, 173, 174, 175, 176, 177, 178, 179, 180, 181, 182, 183, 184, 185, 186, 187, 188, 189, 190, 191, 192, 193, 194, 195, 196, 197, 198, 199, 200, 201, 202, 203, 204, 205, 206, 207, 208, 209, 210, 211, 212, 213, 214, 215, 216, 217, 218, 219, 220, 221, 222, 223, 224, 225, 226, 227, 228, 229, 230, 231, 232, 233, 234, 235, 236, 237, 238, 239, 240, 241, 242, 243, 244, 245, 246, 247, 248, 249, 250, 251, 252, 253, 254, 255, 256, 257, 258, 259, 260, 261, 262, 263, 264],
      "LargestImagePixelValue": [32598, 31284, 30633, 30760, 30437, 30380, 30046, 30058, 30302, 30573, 30376, 30785, 30812, 30202, 30577, 30455, 30617, 30544, 29942, 30083, 30265, 29877, 30022, 29477, 29832, 30019, 30038, 30240, 30081, 30822, 30203, 30447, 30446, 30027, 30445, 30609, 30143, 30288, 30125, 30157, 30598, 30234, 30264, 30593, 30271, 30089, 29680, 29958, 29699, 29859, 30179, 29931, 30574, 30357, 30155, 30237, 30224, 30119, 30085, 30285, 29949, 30062, 30165, 30013, 29887, 30329, 30175, 30450, 30701, 30266, 30335, 30326, 29953, 30426, 30182, 29952, 30298, 30090, 29962, 29886, 29910, 30407, 30074, 30178, 29985, 29855, 30237, 29963, 30710, 30218, 30237, 30100, 30082, 30354, 30103, 30226, 30052, 30335, 30011, 30151, 30321, 30080, 30320, 30353, 30370, 30309, 29912, 30441, 30516, 30070, 30146, 29861, 30189, 30220, 29965, 30335, 29765, 29975, 29874, 30107, 29826, 29998, 30068, 30262, 30083, 29791, 30082, 29294, 29411, 30067, 29998, 30322, 29629, 30247, 29534, 29753, 29800, 30004, 30065, 29473, 29498, 29200, 29772, 29875, 30107, 30082, 30283, 30881, 29865, 29635, 30229, 30112, 29533, 29901, 29305, 29782, 29845, 29247, 29872, 29331, 29699, 29355, 29693, 29494, 29556, 29717, 29945, 30310, 29592, 29524, 29561, 29679, 29721, 29267, 29983, 30043, 29643, 29440, 29295, 29607, 29661, 29424, 30050, 29559, 29669, 29799, 29536, 30027, 29291, 30047, 30400, 29689, 30087, 29953, 29573, 29854, 29372, 29450, 29842, 29547, 29984, 29783, 29399, 29304, 29478, 29388, 29447, 29756, 30080, 29570, 29843, 30205, 29463, 29744, 29955, 29432, 29477, 29878, 29539, 29660, 29547, 29610, 29527, 29586, 29909, 29692, 30312, 29582, 29744, 29986, 29568, 30038, 29562, 29728, 29596, 29678, 29890, 29462, 29689, 30184, 29372, 29666, 29523, 29367, 29712, 29625, 30057, 29702, 30015, 29734, 29641, 30428, 29458, 29944, 29948, 29673, 30115, 29869, 29558, 29940, 29634, 30054, 30069, 30224],
      "WindowCenter": [9150.0, 9099.0, 9081.0, 9070.0, 9054.0, 9046.0, 9036.0, 9037.0, 9051.0, 9068.0, 9077.0, 9075.0, 9068.0, 9054.0, 9064.0, 9049.0, 9055.0, 9052.0, 9059.0, 9068.0, 9069.0, 9055.0, 9053.0, 9034.0, 9039.0, 9040.0, 9054.0, 9051.0, 9052.0, 9058.0, 9052.0, 9060.0, 9062.0, 9063.0, 9064.0, 9069.0, 9054.0, 9053.0, 9054.0, 9054.0, 9065.0, 9061.0, 9053.0, 9060.0, 9061.0, 9059.0, 9045.0, 9062.0, 9071.0, 9067.0, 9064.0, 9054.0, 9049.0, 9041.0, 9049.0, 9052.0, 9061.0, 9068.0, 9063.0, 9069.0, 9055.0, 9045.0, 9038.0, 9036.0, 9037.0, 9050.0, 9044.0, 9034.0, 9040.0, 9040.0, 9040.0, 9051.0, 9046.0, 9060.0, 9063.0, 9064.0, 9086.0, 9081.0, 9071.0, 9054.0, 9046.0, 9050.0, 9044.0, 9043.0, 9058.0, 9047.0, 9061.0, 9068.0, 9076.0, 9071.0, 9055.0, 9054.0, 9046.0, 9042.0, 9042.0, 9050.0, 9060.0, 9067.0, 9063.0, 9062.0, 9070.0, 9063.0, 9069.0, 9063.0, 9059.0, 9060.0, 9046.0, 9050.0, 9049.0, 9042.0, 9041.0, 9045.0, 9051.0, 9059.0, 9061.0, 9065.0, 9063.0, 9070.0, 9074.0, 9081.0, 9074.0, 9079.0, 9063.0, 9060.0, 9060.0, 9047.0, 9053.0, 9048.0, 9046.0, 9060.0, 9053.0, 9067.0, 9056.0, 9052.0, 9040.0, 9037.0, 9034.0, 9040.0, 9048.0, 9047.0, 9066.0, 9069.0, 9067.0, 9048.0, 9035.0, 9026.0, 9032.0, 9043.0, 9034.0, 9037.0, 9044.0, 9043.0, 9038.0, 9036.0, 9046.0, 9048.0, 9055.0, 9051.0, 9057.0, 9040.0, 9028.0, 9015.0, 9028.0, 9024.0, 9032.0, 9037.0, 9042.0, 9042.0, 9024.0, 9031.0, 9048.0, 9056.0, 9058.0, 9044.0, 9055.0, 9048.0, 9045.0, 9038.0, 9045.0, 9045.0, 9046.0, 9047.0, 9051.0, 9037.0, 9037.0, 9034.0, 9038.0, 9053.0, 9047.0, 9045.0, 9042.0, 9035.0, 9035.0, 9043.0, 9039.0, 9046.0, 9046.0, 9048.0, 9053.0, 9048.0, 9053.0, 9044.0, 9031.0, 9031.0, 9040.0, 9042.0, 9041.0, 9053.0, 9052.0, 9039.0, 9039.0, 9045.0, 9041.0, 9046.0, 9052.0, 9041.0, 9039.0, 9047.0, 9040.0, 9045.0, 9041.0, 9055.0, 9058.0, 9051.0, 9055.0, 9048.0, 9051.0, 9040.0, 9045.0, 9052.0, 9040.0, 9045.0, 9047.0, 9047.0, 9040.0, 9047.0, 9045.0, 9029.0, 9027.0, 9025.0, 9020.0, 9035.0, 9030.0, 9037.0, 9037.0, 9037.0, 9035.0, 9036.0, 9035.0, 9028.0, 9027.0, 9030.0, 9012.0, 9031.0, 9041.0, 9037.0, 9043.0, 9037.0, 9030.0, 9052.0, 9053.0, 9054.0, 9059.0, 9052.0],
      "WindowWidth": [19401.0, 19281.0, 19237.0, 19205.0, 19170.0, 19153.0, 19130.0, 19136.0, 19160.0, 19196.0, 19217.0, 19210.0, 19198.0, 19168.0, 19181.0, 19153.0, 19165.0, 19165.0, 19179.0, 19198.0, 19201.0, 19172.0, 19167.0, 19135.0, 19140.0, 19146.0, 19170.0, 19164.0, 19167.0, 19175.0, 19168.0, 19184.0, 19187.0, 19193.0, 19193.0, 19199.0, 19169.0, 19166.0, 19170.0, 19169.0, 19190.0, 19186.0, 19168.0, 19181.0, 19182.0, 19178.0, 19153.0, 19185.0, 19208.0, 19203.0, 19192.0, 19172.0, 19155.0, 19136.0, 19156.0, 19165.0, 19184.0, 19201.0, 19193.0, 19200.0, 19174.0, 19151.0, 19135.0, 19131.0, 19136.0, 19158.0, 19148.0, 19124.0, 19135.0, 19134.0, 19137.0, 19161.0, 19155.0, 19180.0, 19190.0, 19194.0, 19237.0, 19226.0, 19206.0, 19170.0, 19152.0, 19157.0, 19146.0, 19144.0, 19175.0, 19160.0, 19185.0, 19201.0, 19217.0, 19209.0, 19174.0, 19171.0, 19152.0, 19143.0, 19142.0, 19160.0, 19179.0, 19195.0, 19192.0, 19189.0, 19205.0, 19190.0, 19201.0, 19192.0, 19180.0, 19182.0, 19159.0, 19158.0, 19156.0, 19139.0, 19138.0, 19152.0, 19161.0, 19178.0, 19185.0, 19189.0, 19191.0, 19206.0, 19221.0, 19230.0, 19219.0, 19226.0, 19189.0, 19182.0, 19183.0, 19158.0, 19170.0, 19165.0, 19157.0, 19183.0, 19169.0, 19196.0, 19180.0, 19165.0, 19144.0, 19134.0, 19122.0, 19134.0, 19152.0, 19159.0, 19201.0, 19211.0, 19200.0, 19158.0, 19125.0, 19104.0, 19119.0, 19134.0, 19127.0, 19139.0, 19148.0, 19146.0, 19138.0, 19132.0, 19152.0, 19160.0, 19176.0, 19172.0, 19178.0, 19142.0, 19111.0, 19088.0, 19113.0, 19111.0, 19128.0, 19136.0, 19141.0, 19141.0, 19112.0, 19128.0, 19163.0, 19178.0, 19183.0, 19159.0, 19171.0, 19159.0, 19149.0, 19139.0, 19154.0, 19151.0, 19153.0, 19159.0, 19160.0, 19135.0, 19131.0, 19124.0, 19138.0, 19166.0, 19157.0, 19148.0, 19137.0, 19126.0, 19128.0, 19143.0, 19141.0, 19156.0, 19157.0, 19160.0, 19167.0, 19158.0, 19163.0, 19145.0, 19122.0, 19124.0, 19143.0, 19149.0, 19148.0, 19168.0, 19161.0, 19141.0, 19138.0, 19150.0, 19148.0, 19155.0, 19166.0, 19148.0, 19143.0, 19159.0, 19145.0, 19150.0, 19146.0, 19172.0, 19185.0, 19172.0, 19174.0, 19158.0, 19157.0, 19142.0, 19151.0, 19163.0, 19145.0, 19149.0, 19160.0, 19158.0, 19145.0, 19156.0, 19147.0, 19115.0, 19109.0, 19101.0, 19099.0, 19125.0, 19118.0, 19134.0, 19133.0, 19131.0, 19128.0, 19131.0, 19126.0, 19112.0, 19107.0, 19109.0, 19081.0, 19111.0, 19137.0, 19133.0, 19141.0, 19133.0, 19120.0, 19162.0, 19164.0, 19168.0, 19175.0, 19164.0]
    },
    "slices": {}
  }
}