{
  "AcquisitionMatrixPE": 104,
  "AcquisitionNumber": 1,
  "AcquisitionTime": "12:27:49.517500",
  "BandwidthPerPixelPhaseEncode": 16.578,
  "BaseResolution": 104,
  "BodyPartExamined": "BRAIN",
  "ConsistencyInfo": "N4_VE11C_LATEST_20160120",
  "ConversionSoftware": "dcm2niix",
  "ConversionSoftwareVersion": "v1.0.20190410  GCC6.3.0",
  "DerivedVendorReportedEchoSpacing": 0.000580009,
  "DeviceSerialNumber": "166018",
  "DwellTime": 2.1e-06,
  "EchoTime": 0.037,
  "EchoTrainLength": 104,
  "EffectiveEchoSpacing": 0.000580009,
  "FlipAngle": 68,
  "ImageComments": "Unaliased_MB6_PE3_LB",
  "ImageOrientationPatientDICOM": [0.999945, -4.20061e-05, 0.010477, 0.00226878, 0.977133, -0.212619],
  "ImageType": [
    "ORIGINAL",
    "PRIMARY",
    "M",
    "MB",
    "ND",
    "MOSAIC"
],
  "ImagingFrequency": 123.191,
  "InPlanePhaseEncodingDirectionDICOM": "COL",
  "InstitutionAddress": "Washington_Place_6_NYC_NYC_US_10003",
  "InstitutionName": "NYU_Center_for_Brain_Imaging",
  "InstitutionalDepartmentName": "Department",
  "MRAcquisitionType": "2D",
  "MagneticFieldStrength": 3,
  "Manufacturer": "Siemens",
  "ManufacturersModelName": "Prisma",
  "Modality": "MR",
  "MultibandAccelerationFactor": 6,
  "PartialFourier": 1,
  "PatientPosition": "HFS",
  "PercentPhaseFOV": 100,
  "PhaseEncodingDirection": "j",
  "PhaseEncodingSteps": 104,
  "PhaseResolution": 1,
  "PixelBandwidth": 2290,
  "ProcedureStepDescription": "Investigators_Winawer",
  "ProtocolName": "task-sfprescaled_mbepi_s6_2mm_66sl_PA_TR1.0-",
  "PulseSequenceDetails": "%CustomerSeq%_cmrr_mbep2d_bold",
  "ReceiveCoilActiveElements": "HC1-7",
  "ReceiveCoilName": "HeadNeck_64",
  "ReconMatrixPE": 104,
  "RepetitionTime": 1,
  "SAR": 0.0706464,
  "ScanOptions": "FS",
  "ScanningSequence": "EP",
  "SequenceName": "epfid2d1_104",
  "SequenceVariant": "SK_SS",
  "SeriesDescription": "task-sfprescaled_mbepi_s6_2mm_66sl_PA_TR1.0-",
  "SeriesNumber": 18,
  "ShimSetting": [283, -12618, -8461, 445, 86, -59, -129, -57],
  "SliceThickness": 2,
  "SliceTiming": [0, 0.535, 0.09, 0.625, 0.18, 0.7125, 0.2675, 0.8025, 0.3575, 0.8925, 0.4475, 0, 0.535, 0.09, 0.625, 0.18, 0.7125, 0.2675, 0.8025, 0.3575, 0.8925, 0.4475, 0, 0.535, 0.09, 0.625, 0.18, 0.7125, 0.2675, 0.8025, 0.3575, 0.8925, 0.4475, 0, 0.535, 0.09, 0.625, 0.18, 0.7125, 0.2675, 0.8025, 0.3575, 0.8925, 0.4475, 0, 0.535, 0.09, 0.625, 0.18, 0.7125, 0.2675, 0.8025, 0.3575, 0.8925, 0.4475, 0, 0.535, 0.09, 0.625, 0.18, 0.7125, 0.2675, 0.8025, 0.3575, 0.8925, 0.4475],
  "SoftwareVersions": "syngo_MR_E11",
  "SpacingBetweenSlices": 2,
  "StationName": "AWP166018",
  "TaskName": "sfprescaled",
  "TotalReadoutTime": 0.0597409,
  "TxRefAmp": 215.643,
  "WipMemBlock": "34fe9896-9353-452e-b995-7f6b7128c97a||Sequence: R016 ve11c/master r/8780670; Nov 27 2017 15:05:12 by eja",
  "dcmmeta_affine": [
    [-1.9998902082443237, 0.004537566099315882, 0.02045702561736107, 110.97503662109375],
    [8.4012295701541e-05, 1.9542652368545532, -0.42526179552078247, -81.9362564086914],
    [0.020954053848981857, 0.42523759603500366, 1.954158067703247, -73.46516418457031],
    [0.0, 0.0, 0.0, 1.0]
],
  "dcmmeta_reorient_transform": [
    [0.0, -1.0, 0.0, 103.0],
    [1.0, 0.0, 0.0, 0.0],
    [0.0, 0.0, 1.0, 0.0],
    [0.0, 0.0, 0.0, 1.0]
],
  "dcmmeta_shape": [104, 104, 66, 264],
  "dcmmeta_slice_dim": 2,
  "dcmmeta_version": 0.6,
  "global": {
    "const": {
      "AccessionNumber": "jtu6jhmb",
  "NumberOfVolumes": 264,
      "AcquisitionMatrix": [104, 0, 0, 104],
      "AngioFlag": "N",
      "BitsAllocated": 16,
      "BitsStored": 16,
      "BodyPartExamined": "BRAIN",
      "Columns": 936,
      "EchoNumbers": 1,
      "EchoTime": 37.0,
      "EchoTrainLength": 104,
      "FlipAngle": 68.0,
      "HighBit": 15,
      "ImageOrientationPatient": [0.99994511356325, -4.20061489e-05, 0.01047702708094, 0.00226878296554, 0.97713259133393, -0.212618794035],
      "ImagePositionPatient": [-945.28436869193, -932.29242349066, 138.51625926815],
      "ImageType": [
        "ORIGINAL",
        "PRIMARY",
        "M",
        "MB",
        "ND",
        "MOSAIC"
],
      "ImagedNucleus": "1H",
      "ImagingFrequency": 123.191219,
      "InPlanePhaseEncodingDirection": "COL",
      "MRAcquisitionType": "2D",
      "MagneticFieldStrength": 3.0,
      "Manufacturer": "SIEMENS",
      "ManufacturerModelName": "Prisma",
      "Modality": "MR",
      "NumberOfAverages": 1.0,
      "NumberOfPhaseEncodingSteps": 104,
      "PercentPhaseFieldOfView": 100.0,
      "PercentSampling": 100.0,
      "PerformedProcedureStepStartTime": "115204.018000",
      "PhotometricInterpretation": "MONOCHROME2",
      "PixelBandwidth": 2290.0,
      "PixelRepresentation": 0,
      "PixelSpacing": [2.0, 2.0],
      "ProtocolName": "task-sfprescaled_mbepi_s6_2mm_66sl_PA_TR1.0-",
      "RepetitionTime": 1000.0,
      "Rows": 936,
      "SAR": 0.07064645224032,
      "SamplesPerPixel": 1,
      "ScanOptions": "FS",
      "ScanningSequence": "EP",
      "SequenceName": "epfid2d1_104",
      "SequenceVariant": [
        "SK",
        "SS"
],
      "SeriesDescription": "task-sfprescaled_mbepi_s6_2mm_66sl_PA_TR1.0-",
      "SeriesNumber": 18,
      "SeriesTime": "122844.747000",
      "SliceLocation": -53.223982195688,
      "SliceThickness": 2.0,
      "SmallestImagePixelValue": 0,
      "SoftwareVersions": "syngo MR E11",
      "SpacingBetweenSlices": 1.9999999725963,
      "SpecificCharacterSet": "ISO_IR 100",
      "StudyID": "1",
      "StudyTime": "115203.950000",
      "TransmitCoilName": "Body",
      "VariableFlipAngleFlag": "N",
      "WindowCenterWidthExplanation": "Algo1",
      "dBdt": 0.0},
    "slices": {}
  },
  "time": {
    "samples": {
      "AcquisitionNumber": [1, 2, 3, 4, 5, 6, 7, 8, 9, 10, 11, 12, 13, 14, 15, 16, 17, 18, 19, 20, 21, 22, 23, 24, 25, 26, 27, 28, 29, 30, 31, 32, 33, 34, 35, 36, 37, 38, 39, 40, 41, 42, 43, 44, 45, 46, 47, 48, 49, 50, 51, 52, 53, 54, 55, 56, 57, 58, 59, 60, 61, 62, 63, 64, 65, 66, 67, 68, 69, 70, 71, 72, 73, 74, 75, 76, 77, 78, 79, 80, 81, 82, 83, 84, 85, 86, 87, 88, 89, 90, 91, 92, 93, 94, 95, 96, 97, 98, 99, 100, 101, 102, 103, 104, 105, 106, 107, 108, 109, 110, 111, 112, 113, 114, 115, 116, 117, 118, 119, 120, 121, 122, 123, 124, 125, 126, 127, 128, 129, 130, 131, 132, 133, 134, 135, 136, 137, 138, 139, 140, 141, 142, 143, 144, 145, 146, 147, 148, 149, 150, 151, 152, 153, 154, 155, 156, 157, 158, 159, 160, 161, 162, 163, 164, 165, 166, 167, 168, 169, 170, 171, 172, 173, 174, 175, 176, 177, 178, 179, 180, 181, 182, 183, 184, 185, 186, 187, 188, 189, 190, 191, 192, 193, 194, 195, 196, 197, 198, 199, 200, 201, 202, 203, 204, 205, 206, 207, 208, 209, 210, 211, 212, 213, 214, 215, 216, 217, 218, 219, 220, 221, 222, 223, 224, 225, 226, 227, 228, 229, 230, 231, 232, 233, 234, 235, 236, 237, 238, 239, 240, 241, 242, 243, 244, 245, 246, 247, 248, 249, 250, 251, 252, 253, 254, 255, 256, 257, 258, 259, 260, 261, 262, 263, 264],
      "AcquisitionTime": ["122749.517500", "122750.517500", "122751.517500", "122752.517500", "122753.517500", "122754.517500", "122755.517500", "122756.517500", "122757.517500", "122758.517500", "122759.517500", "122800.517500", "122801.517500", "122802.517500", "122803.517500", "122804.517500", "122805.517500", "122806.517500", "122807.517500", "122808.517500", "122809.517500", "122810.517500", "122811.517500", "122812.517500", "122813.517500", "122814.517500", "122815.517500", "122816.517500", "122817.517500", "122818.517500", "122819.517500", "122820.517500", "122821.517500", "122822.517500", "122823.517500", "122824.517500", "122825.517500", "122826.517500", "122827.517500", "122828.517500", "122829.517500", "122830.517500", "122831.517500", "122832.517500", "122833.517500", "122834.517500", "122835.517500", "122836.517500", "122837.517500", "122838.517500", "122839.517500", "122840.517500", "122841.517500", "122842.517500", "122843.517500", "122844.517500", "122845.517500", "122846.517500", "122847.517500", "122848.517500", "122849.517500", "122850.517500", "122851.517500", "122852.517500", "122853.517500", "122854.517500", "122855.517500", "122856.517500", "122857.517500", "122858.517500", "122859.517500", "122900.517500", "122901.517500", "122902.517500", "122903.517500", "122904.517500", "122905.517500", "122906.517500", "122907.517500", "122908.517500", "122909.517500", "122910.517500", "122911.517500", "122912.517500", "122913.517500", "122914.517500", "122915.517500", "122916.517500", "122917.517500", "122918.517500", "122919.517500", "122920.517500", "122921.517500", "122922.517500", "122923.517500", "122924.517500", "122925.517500", "122926.517500", "122927.517500", "122928.517500", "122929.517500", "122930.517500", "122931.517500", "122932.517500", "122933.517500", "122934.517500", "122935.517500", "122936.517500", "122937.517500", "122938.517500", "122939.517500", "122940.517500", "122941.517500", "122942.517500", "122943.517500", "122944.517500", "122945.517500", "122946.517500", "122947.517500", "122948.517500", "122949.517500", "122950.517500", "122951.517500", "122952.517500", "122953.517500", "122954.517500", "122955.517500", "122956.517500", "122957.517500", "122958.517500", "122959.517500", "123000.517500", "123001.517500", "123002.517500", "123003.517500", "123004.517500", "123005.517500", "123006.517500", "123007.517500", "123008.517500", "123009.517500", "123010.517500", "123011.517500", "123012.517500", "123013.517500", "123014.517500", "123015.517500", "123016.517500", "123017.517500", "123018.517500", "123019.517500", "123020.517500", "123021.517500", "123022.517500", "123023.517500", "123024.517500", "123025.517500", "123026.517500", "123027.517500", "123028.517500", "123029.517500", "123030.517500", "123031.517500", "123032.517500", "123033.517500", "123034.517500", "123035.517500", "123036.517500", "123037.517500", "123038.517500", "123039.517500", "123040.517500", "123041.517500", "123042.517500", "123043.517500", "123044.517500", "123045.517500", "123046.517500", "123047.517500", "123048.517500", "123049.517500", "123050.517500", "123051.517500", "123052.517500", "123053.517500", "123054.517500", "123055.517500", "123056.517500", "123057.517500", "123058.517500", "123059.517500", "123100.517500", "123101.517500", "123102.517500", "123103.517500", "123104.517500", "123105.517500", "123106.517500", "123107.517500", "123108.517500", "123109.517500", "123110.517500", "123111.517500", "123112.517500", "123113.517500", "123114.517500", "123115.517500", "123116.517500", "123117.517500", "123118.517500", "123119.517500", "123120.517500", "123121.517500", "123122.517500", "123123.517500", "123124.517500", "123125.517500", "123126.517500", "123127.517500", "123128.517500", "123129.517500", "123130.517500", "123131.517500", "123132.517500", "123133.517500", "123134.517500", "123135.517500", "123136.517500", "123137.517500", "123138.517500", "123139.517500", "123140.517500", "123141.517500", "123142.517500", "123143.517500", "123144.517500", "123145.517500", "123146.517500", "123147.517500", "123148.517500", "123149.517500", "123150.517500", "123151.517500", "123152.517500", "123153.517500", "123154.517500", "123155.517500", "123156.517500", "123157.517500", "123158.517500", "123159.517500", "123200.517500", "123201.517500", "123202.517500", "123203.517500", "123204.517500", "123205.517500", "123206.517500", "123207.517500", "123208.517500", "123209.517500", "123210.517500", "123211.517500", "123212.517500"],
      "ContentTime": ["122844.749000", "122844.753000", "122844.756000", "122844.758000", "122844.773000", "122844.776000", "122844.790000", "122844.793000", "122849.747000", "122849.756000", "122849.759000", "122849.762000", "122849.765000", "122849.768000", "122849.771000", "122854.747000", "122854.753000", "122854.756000", "122854.759000", "122854.770000", "122854.773000", "122854.776000", "122859.748000", "122859.751000", "122859.754000", "122859.757000", "122859.760000", "122859.763000", "122859.766000", "122904.748000", "122904.751000", "122904.754000", "122904.757000", "122904.760000", "122904.763000", "122904.766000", "122909.747000", "122909.750000", "122909.755000", "122909.758000", "122909.760000", "122909.763000", "122909.766000", "122914.748000", "122914.751000", "122914.754000", "122914.757000", "122914.760000", "122914.763000", "122914.766000", "122919.748000", "122919.751000", "122919.754000", "122919.757000", "122919.760000", "122919.763000", "122919.765000", "122924.747000", "122924.750000", "122924.753000", "122924.756000", "122924.759000", "122924.762000", "122924.765000", "122929.747000", "122929.750000", "122929.753000", "122929.756000", "122929.759000", "122929.762000", "122929.765000", "122934.748000", "122934.751000", "122934.754000", "122934.757000", "122934.760000", "122934.763000", "122934.766000", "122939.748000", "122939.751000", "122939.754000", "122939.757000", "122939.760000", "122939.763000", "122939.766000", "122944.747000", "122944.750000", "122944.753000", "122944.756000", "122944.759000", "122944.762000", "122944.765000", "122949.748000", "122949.751000", "122949.754000", "122949.756000", "122949.764000", "122949.767000", "122949.770000", "122949.773000", "122954.748000", "122954.751000", "122954.754000", "122954.757000", "122954.760000", "122954.762000", "122954.766000", "122959.747000", "122959.750000", "122959.753000", "122959.756000", "122959.759000", "122959.762000", "122959.765000", "123004.747000", "123004.750000", "123004.753000", "123004.756000", "123004.759000", "123004.762000", "123004.765000", "123009.748000", "123009.751000", "123009.754000", "123009.757000", "123009.760000", "123009.763000", "123009.766000", "123014.748000", "123014.751000", "123014.754000", "123014.757000", "123014.760000", "123014.763000", "123014.766000", "123019.747000", "123019.750000", "123019.753000", "123019.755000", "123019.759000", "123019.765000", "123019.768000", "123024.748000", "123024.751000", "123024.771000", "123024.774000", "123024.777000", "123024.780000", "123024.783000", "123029.748000", "123029.751000", "123029.754000", "123029.757000", "123029.760000", "123029.763000", "123029.766000", "123034.747000", "123034.750000", "123034.753000", "123034.756000", "123034.759000", "123034.762000", "123034.765000", "123039.747000", "123039.750000", "123039.753000", "123039.756000", "123039.759000", "123039.762000", "123044.748000", "123044.751000", "123044.759000", "123044.762000", "123044.765000", "123049.748000", "123049.751000", "123049.754000", "123049.757000", "123049.760000", "123054.747000", "123054.750000", "123054.753000", "123054.756000", "123054.759000", "123059.748000", "123059.751000", "123059.754000", "123059.757000", "123059.760000", "123104.748000", "123104.751000", "123104.754000", "123104.757000", "123104.760000", "123109.747000", "123109.750000", "123109.753000", "123109.756000", "123109.759000", "123114.747000", "123114.750000", "123114.753000", "123114.756000", "123114.759000", "123119.748000", "123119.751000", "123119.754000", "123119.757000", "123119.760000", "123124.748000", "123124.751000", "123124.754000", "123124.757000", "123124.760000", "123129.747000", "123129.750000", "123129.753000", "123129.756000", "123129.759000", "123134.748000", "123134.751000", "123134.754000", "123134.757000", "123134.760000", "123139.749000", "123139.752000", "123139.755000", "123139.758000", "123139.761000", "123144.747000", "123144.750000", "123144.753000", "123144.756000", "123144.759000", "123149.747000", "123149.750000", "123149.753000", "123149.756000", "123149.759000", "123154.748000", "123154.751000", "123154.754000", "123154.757000", "123154.760000", "123159.748000", "123159.751000", "123159.754000", "123159.757000", "123159.760000", "123204.747000", "123204.750000", "123204.753000", "123204.756000", "123204.759000", "123209.748000", "123209.751000", "123209.754000", "123209.757000", "123209.760000", "123214.125000", "123214.128000", "123214.131000", "123214.134000", "123214.145000"],
      "InstanceCreationTime": ["122844.749000", "122844.753000", "122844.756000", "122844.758000", "122844.773000", "122844.776000", "122844.790000", "122844.793000", "122849.747000", "122849.756000", "122849.759000", "122849.762000", "122849.765000", "122849.768000", "122849.771000", "122854.747000", "122854.753000", "122854.756000", "122854.759000", "122854.770000", "122854.773000", "122854.776000", "122859.748000", "122859.751000", "122859.754000", "122859.757000", "122859.760000", "122859.763000", "122859.766000", "122904.748000", "122904.751000", "122904.754000", "122904.757000", "122904.760000", "122904.763000", "122904.766000", "122909.747000", "122909.750000", "122909.755000", "122909.758000", "122909.760000", "122909.763000", "122909.766000", "122914.748000", "122914.751000", "122914.754000", "122914.757000", "122914.760000", "122914.763000", "122914.766000", "122919.748000", "122919.751000", "122919.754000", "122919.757000", "122919.760000", "122919.763000", "122919.765000", "122924.747000", "122924.750000", "122924.753000", "122924.756000", "122924.759000", "122924.762000", "122924.765000", "122929.747000", "122929.750000", "122929.753000", "122929.756000", "122929.759000", "122929.762000", "122929.765000", "122934.748000", "122934.751000", "122934.754000", "122934.757000", "122934.760000", "122934.763000", "122934.766000", "122939.748000", "122939.751000", "122939.754000", "122939.757000", "122939.760000", "122939.763000", "122939.766000", "122944.747000", "122944.750000", "122944.753000", "122944.756000", "122944.759000", "122944.762000", "122944.765000", "122949.748000", "122949.751000", "122949.754000", "122949.756000", "122949.764000", "122949.767000", "122949.770000", "122949.773000", "122954.748000", "122954.751000", "122954.754000", "122954.757000", "122954.760000", "122954.762000", "122954.766000", "122959.747000", "122959.750000", "122959.753000", "122959.756000", "122959.759000", "122959.762000", "122959.765000", "123004.747000", "123004.750000", "123004.753000", "123004.756000", "123004.759000", "123004.762000", "123004.765000", "123009.748000", "123009.751000", "123009.754000", "123009.757000", "123009.760000", "123009.763000", "123009.766000", "123014.748000", "123014.751000", "123014.754000", "123014.757000", "123014.760000", "123014.763000", "123014.766000", "123019.747000", "123019.750000", "123019.753000", "123019.755000", "123019.759000", "123019.765000", "123019.768000", "123024.748000", "123024.751000", "123024.771000", "123024.774000", "123024.777000", "123024.780000", "123024.783000", "123029.748000", "123029.751000", "123029.754000", "123029.757000", "123029.760000", "123029.763000", "123029.766000", "123034.747000", "123034.750000", "123034.753000", "123034.756000", "123034.759000", "123034.762000", "123034.765000", "123039.747000", "123039.750000", "123039.753000", "123039.756000", "123039.759000", "123039.762000", "123044.748000", "123044.751000", "123044.759000", "123044.762000", "123044.765000", "123049.748000", "123049.751000", "123049.754000", "123049.757000", "123049.760000", "123054.747000", "123054.750000", "123054.753000", "123054.756000", "123054.759000", "123059.748000", "123059.751000", "123059.754000", "123059.757000", "123059.760000", "123104.748000", "123104.751000", "123104.754000", "123104.757000", "123104.760000", "123109.747000", "123109.750000", "123109.753000", "123109.756000", "123109.759000", "123114.747000", "123114.750000", "123114.753000", "123114.756000", "123114.759000", "123119.748000", "123119.751000", "123119.754000", "123119.757000", "123119.760000", "123124.748000", "123124.751000", "123124.754000", "123124.757000", "123124.760000", "123129.747000", "123129.750000", "123129.753000", "123129.756000", "123129.759000", "123134.748000", "123134.751000", "123134.754000", "123134.757000", "123134.760000", "123139.749000", "123139.752000", "123139.755000", "123139.758000", "123139.761000", "123144.747000", "123144.750000", "123144.753000", "123144.756000", "123144.759000", "123149.747000", "123149.750000", "123149.753000", "123149.756000", "123149.759000", "123154.748000", "123154.751000", "123154.754000", "123154.757000", "123154.760000", "123159.748000", "123159.751000", "123159.754000", "123159.757000", "123159.760000", "123204.747000", "123204.750000", "123204.753000", "123204.756000", "123204.759000", "123209.748000", "123209.751000", "123209.754000", "123209.757000", "123209.760000", "123214.125000", "123214.128000", "123214.131000", "123214.134000", "123214.145000"],
      "InstanceNumber": [1, 2, 3, 4, 5, 6, 7, 8, 9, 10, 11, 12, 13, 14, 15, 16, 17, 18, 19, 20, 21, 22, 23, 24, 25, 26, 27, 28, 29, 30, 31, 32, 33, 34, 35, 36, 37, 38, 39, 40, 41, 42, 43, 44, 45, 46, 47, 48, 49, 50, 51, 52, 53, 54, 55, 56, 57, 58, 59, 60, 61, 62, 63, 64, 65, 66, 67, 68, 69, 70, 71, 72, 73, 74, 75, 76, 77, 78, 79, 80, 81, 82, 83, 84, 85, 86, 87, 88, 89, 90, 91, 92, 93, 94, 95, 96, 97, 98, 99, 100, 101, 102, 103, 104, 105, 106, 107, 108, 109, 110, 111, 112, 113, 114, 115, 116, 117, 118, 119, 120, 121, 122, 123, 124, 125, 126, 127, 128, 129, 130, 131, 132, 133, 134, 135, 136, 137, 138, 139, 140, 141, 142, 143, 144, 145, 146, 147, 148, 149, 150, 151, 152, 153, 154, 155, 156, 157, 158, 159, 160, 161, 162, 163, 164, 165, 166, 167, 168, 169, 170, 171, 172, 173, 174, 175, 176, 177, 178, 179, 180, 181, 182, 183, 184, 185, 186, 187, 188, 189, 190, 191, 192, 193, 194, 195, 196, 197, 198, 199, 200, 201, 202, 203, 204, 205, 206, 207, 208, 209, 210, 211, 212, 213, 214, 215, 216, 217, 218, 219, 220, 221, 222, 223, 224, 225, 226, 227, 228, 229, 230, 231, 232, 233, 234, 235, 236, 237, 238, 239, 240, 241, 242, 243, 244, 245, 246, 247, 248, 249, 250, 251, 252, 253, 254, 255, 256, 257, 258, 259, 260, 261, 262, 263, 264],
      "LargestImagePixelValue": [32632, 32106, 31783, 31204, 30746, 31387, 31560, 31066, 30716, 30990, 31581, 30998, 30751, 31152, 31455, 30920, 30527, 31192, 31534, 30964, 30507, 31613, 31289, 30808, 30557, 31240, 31199, 30935, 30618, 30964, 31479, 31817, 30796, 30787, 31090, 31145, 30741, 30610, 31495, 30943, 30692, 31345, 31119, 31141, 30591, 31389, 31312, 30889, 30638, 31429, 30628, 30888, 30666, 31130, 31184, 31328, 30587, 31173, 31053, 31500, 30707, 31180, 30915, 30909, 30642, 30742, 30978, 30703, 30491, 30829, 30848, 30697, 30320, 30805, 30932, 30800, 30512, 30659, 30744, 30813, 30482, 30968, 30772, 31121, 30840, 30428, 30845, 31171, 30431, 30472, 30975, 30655, 30460, 30316, 30805, 31047, 30553, 30659, 30736, 30732, 30884, 30350, 30945, 30922, 30502, 30046, 30728, 30548, 30829, 30164, 30528, 30824, 30302, 30210, 30533, 30448, 30350, 30454, 30495, 30378, 30214, 30308, 30345, 30436, 30189, 30107, 30357, 30457, 30254, 30653, 30685, 30546, 30697, 30558, 30995, 31271, 30956, 30490, 30670, 31011, 30358, 30219, 30554, 30747, 30515, 30454, 30434, 30343, 30484, 30164, 30324, 30186, 30225, 30211, 30138, 30162, 30401, 30409, 30081, 30157, 30296, 30428, 30222, 30287, 30806, 30401, 30979, 30363, 30203, 30233, 30387, 30616, 30506, 30341, 30711, 30286, 30560, 30627, 30539, 30643, 30226, 30528, 30902, 30223, 30138, 30275, 30413, 30259, 30656, 30267, 30499, 30690, 30626, 30126, 30541, 30339, 30734, 30650, 30310, 30276, 30635, 30312, 30257, 30289, 30446, 30599, 30268, 30274, 30460, 30375, 30443, 30305, 30556, 30375, 30506, 30593, 30362, 30778, 30370, 30670, 30599, 30483, 30497, 30704, 30455, 30565, 30849, 30353, 30733, 30698, 30928, 30519, 30659, 30895, 30862, 30671, 30391, 30878, 30275, 30306, 30297, 30370, 30328, 30453, 30224, 30764, 30367, 30660, 30403, 30749, 30112, 30443, 30233, 30429, 30287, 30687, 30532, 30406, 30827, 30184, 30314, 30522, 30444, 30735],
      "WindowCenter": [9592.0, 9570.0, 9570.0, 9565.0, 9551.0, 9556.0, 9562.0, 9550.0, 9535.0, 9533.0, 9545.0, 9530.0, 9516.0, 9521.0, 9529.0, 9537.0, 9517.0, 9536.0, 9548.0, 9554.0, 9537.0, 9561.0, 9556.0, 9535.0, 9520.0, 9535.0, 9538.0, 9539.0, 9533.0, 9537.0, 9554.0, 9571.0, 9561.0, 9552.0, 9564.0, 9557.0, 9543.0, 9537.0, 9547.0, 9539.0, 9523.0, 9526.0, 9521.0, 9521.0, 9514.0, 9510.0, 9517.0, 9509.0, 9487.0, 9488.0, 9477.0, 9491.0, 9494.0, 9509.0, 9520.0, 9537.0, 9533.0, 9531.0, 9533.0, 9538.0, 9526.0, 9520.0, 9519.0, 9520.0, 9506.0, 9503.0, 9509.0, 9512.0, 9505.0, 9504.0, 9511.0, 9506.0, 9497.0, 9489.0, 9502.0, 9496.0, 9488.0, 9486.0, 9503.0, 9514.0, 9524.0, 9536.0, 9534.0, 9538.0, 9525.0, 9515.0, 9530.0, 9539.0, 9535.0, 9527.0, 9529.0, 9525.0, 9517.0, 9517.0, 9522.0, 9539.0, 9535.0, 9534.0, 9531.0, 9525.0, 9522.0, 9501.0, 9504.0, 9519.0, 9517.0, 9512.0, 9533.0, 9535.0, 9533.0, 9512.0, 9508.0, 9515.0, 9501.0, 9494.0, 9508.0, 9524.0, 9525.0, 9517.0, 9519.0, 9526.0, 9514.0, 9518.0, 9517.0, 9511.0, 9509.0, 9493.0, 9506.0, 9516.0, 9517.0, 9521.0, 9523.0, 9518.0, 9514.0, 9508.0, 9527.0, 9550.0, 9556.0, 9544.0, 9543.0, 9548.0, 9536.0, 9522.0, 9511.0, 9508.0, 9501.0, 9506.0, 9514.0, 9531.0, 9536.0, 9529.0, 9533.0, 9526.0, 9519.0, 9497.0, 9488.0, 9493.0, 9491.0, 9484.0, 9478.0, 9485.0, 9495.0, 9492.0, 9502.0, 9527.0, 9542.0, 9529.0, 9539.0, 9519.0, 9504.0, 9494.0, 9499.0, 9506.0, 9500.0, 9509.0, 9522.0, 9517.0, 9523.0, 9525.0, 9536.0, 9543.0, 9524.0, 9528.0, 9526.0, 9507.0, 9489.0, 9493.0, 9501.0, 9517.0, 9525.0, 9521.0, 9524.0, 9535.0, 9518.0, 9503.0, 9504.0, 9511.0, 9515.0, 9517.0, 9519.0, 9528.0, 9527.0, 9529.0, 9530.0, 9521.0, 9511.0, 9516.0, 9518.0, 9519.0, 9513.0, 9513.0, 9526.0, 9527.0, 9526.0, 9529.0, 9536.0, 9552.0, 9546.0, 9537.0, 9528.0, 9533.0, 9518.0, 9510.0, 9518.0, 9528.0, 9521.0, 9525.0, 9519.0, 9519.0, 9519.0, 9517.0, 9532.0, 9528.0, 9532.0, 9539.0, 9549.0, 9552.0, 9538.0, 9529.0, 9522.0, 9519.0, 9512.0, 9511.0, 9513.0, 9506.0, 9499.0, 9514.0, 9501.0, 9506.0, 9501.0, 9515.0, 9514.0, 9512.0, 9505.0, 9518.0, 9520.0, 9517.0, 9502.0, 9494.0, 9506.0, 9496.0, 9501.0, 9517.0, 9527.0, 9527.0],
      "WindowWidth": [20531.0, 20482.0, 20482.0, 20473.0, 20447.0, 20452.0, 20461.0, 20441.0, 20409.0, 20402.0, 20425.0, 20398.0, 20368.0, 20376.0, 20393.0, 20412.0, 20373.0, 20406.0, 20432.0, 20451.0, 20424.0, 20467.0, 20458.0, 20420.0, 20388.0, 20412.0, 20424.0, 20427.0, 20415.0, 20419.0, 20458.0, 20496.0, 20478.0, 20453.0, 20473.0, 20461.0, 20430.0, 20414.0, 20433.0, 20419.0, 20381.0, 20381.0, 20375.0, 20375.0, 20357.0, 20345.0, 20360.0, 20344.0, 20295.0, 20291.0, 20276.0, 20306.0, 20315.0, 20347.0, 20376.0, 20412.0, 20408.0, 20403.0, 20407.0, 20415.0, 20391.0, 20371.0, 20369.0, 20371.0, 20343.0, 20330.0, 20341.0, 20352.0, 20341.0, 20336.0, 20351.0, 20342.0, 20322.0, 20307.0, 20330.0, 20322.0, 20303.0, 20297.0, 20335.0, 20367.0, 20390.0, 20412.0, 20413.0, 20418.0, 20388.0, 20365.0, 20396.0, 20419.0, 20415.0, 20393.0, 20391.0, 20386.0, 20372.0, 20370.0, 20381.0, 20416.0, 20411.0, 20404.0, 20392.0, 20382.0, 20373.0, 20331.0, 20333.0, 20366.0, 20370.0, 20364.0, 20405.0, 20411.0, 20405.0, 20357.0, 20345.0, 20359.0, 20334.0, 20319.0, 20350.0, 20387.0, 20391.0, 20374.0, 20377.0, 20390.0, 20371.0, 20372.0, 20371.0, 20357.0, 20351.0, 20315.0, 20344.0, 20370.0, 20374.0, 20379.0, 20384.0, 20375.0, 20365.0, 20351.0, 20388.0, 20439.0, 20458.0, 20438.0, 20431.0, 20441.0, 20417.0, 20385.0, 20360.0, 20350.0, 20338.0, 20346.0, 20367.0, 20406.0, 20423.0, 20407.0, 20408.0, 20393.0, 20377.0, 20329.0, 20308.0, 20317.0, 20311.0, 20294.0, 20285.0, 20301.0, 20317.0, 20315.0, 20340.0, 20399.0, 20430.0, 20401.0, 20411.0, 20374.0, 20339.0, 20315.0, 20326.0, 20342.0, 20331.0, 20352.0, 20379.0, 20372.0, 20380.0, 20387.0, 20415.0, 20430.0, 20393.0, 20394.0, 20386.0, 20350.0, 20311.0, 20316.0, 20334.0, 20371.0, 20387.0, 20383.0, 20393.0, 20410.0, 20371.0, 20341.0, 20342.0, 20358.0, 20364.0, 20370.0, 20378.0, 20396.0, 20392.0, 20396.0, 20401.0, 20382.0, 20353.0, 20361.0, 20371.0, 20374.0, 20361.0, 20361.0, 20389.0, 20392.0, 20390.0, 20398.0, 20413.0, 20448.0, 20439.0, 20415.0, 20396.0, 20401.0, 20372.0, 20355.0, 20374.0, 20401.0, 20386.0, 20389.0, 20378.0, 20380.0, 20379.0, 20375.0, 20406.0, 20403.0, 20406.0, 20420.0, 20443.0, 20452.0, 20422.0, 20397.0, 20383.0, 20375.0, 20358.0, 20359.0, 20368.0, 20354.0, 20337.0, 20362.0, 20335.0, 20343.0, 20337.0, 20366.0, 20368.0, 20361.0, 20345.0, 20367.0, 20371.0, 20363.0, 20328.0, 20314.0, 20335.0, 20321.0, 20333.0, 20370.0, 20393.0, 20391.0]
    },
    "slices": {}
  }
}