{
  "AcquisitionMatrixPE": 104,
  "AcquisitionNumber": 1,
  "AcquisitionTime": "12:32:48.530000",
  "BandwidthPerPixelPhaseEncode": 16.578,
  "BaseResolution": 104,
  "BodyPartExamined": "BRAIN",
  "ConsistencyInfo": "N4_VE11C_LATEST_20160120",
  "ConversionSoftware": "dcm2niix",
  "ConversionSoftwareVersion": "v1.0.20190410  GCC6.3.0",
  "DerivedVendorReportedEchoSpacing": 0.000580009,
  "DeviceSerialNumber": "166018",
  "DwellTime": 2.1e-06,
  "EchoTime": 0.037,
  "EchoTrainLength": 104,
  "EffectiveEchoSpacing": 0.000580009,
  "FlipAngle": 68,
  "ImageComments": "Unaliased_MB6_PE3_LB",
  "ImageOrientationPatientDICOM": [0.999945, -4.20061e-05, 0.010477, 0.00226878, 0.977133, -0.212619],
  "ImageType": [
    "ORIGINAL",
    "PRIMARY",
    "M",
    "MB",
    "ND",
    "MOSAIC"
],
  "ImagingFrequency": 123.191,
  "InPlanePhaseEncodingDirectionDICOM": "COL",
  "InstitutionAddress": "Washington_Place_6_NYC_NYC_US_10003",
  "InstitutionName": "NYU_Center_for_Brain_Imaging",
  "InstitutionalDepartmentName": "Department",
  "MRAcquisitionType": "2D",
  "MagneticFieldStrength": 3,
  "Manufacturer": "Siemens",
  "ManufacturersModelName": "Prisma",
  "Modality": "MR",
  "MultibandAccelerationFactor": 6,
  "PartialFourier": 1,
  "PatientPosition": "HFS",
  "PercentPhaseFOV": 100,
  "PhaseEncodingDirection": "j",
  "PhaseEncodingSteps": 104,
  "PhaseResolution": 1,
  "PixelBandwidth": 2290,
  "ProcedureStepDescription": "Investigators_Winawer",
  "ProtocolName": "task-sfprescaled_mbepi_s6_2mm_66sl_PA_TR1.0-",
  "PulseSequenceDetails": "%CustomerSeq%_cmrr_mbep2d_bold",
  "ReceiveCoilActiveElements": "HC1-7",
  "ReceiveCoilName": "HeadNeck_64",
  "ReconMatrixPE": 104,
  "RepetitionTime": 1,
  "SAR": 0.0706464,
  "ScanOptions": "FS",
  "ScanningSequence": "EP",
  "SequenceName": "epfid2d1_104",
  "SequenceVariant": "SK_SS",
  "SeriesDescription": "task-sfprescaled_mbepi_s6_2mm_66sl_PA_TR1.0-",
  "SeriesNumber": 20,
  "ShimSetting": [283, -12618, -8461, 445, 86, -59, -129, -57],
  "SliceThickness": 2,
  "SliceTiming": [0, 0.535, 0.0875, 0.6225, 0.1775, 0.7125, 0.2675, 0.8025, 0.355, 0.89, 0.445, 0, 0.535, 0.0875, 0.6225, 0.1775, 0.7125, 0.2675, 0.8025, 0.355, 0.89, 0.445, 0, 0.535, 0.0875, 0.6225, 0.1775, 0.7125, 0.2675, 0.8025, 0.355, 0.89, 0.445, 0, 0.535, 0.0875, 0.6225, 0.1775, 0.7125, 0.2675, 0.8025, 0.355, 0.89, 0.445, 0, 0.535, 0.0875, 0.6225, 0.1775, 0.7125, 0.2675, 0.8025, 0.355, 0.89, 0.445, 0, 0.535, 0.0875, 0.6225, 0.1775, 0.7125, 0.2675, 0.8025, 0.355, 0.89, 0.445],
  "SoftwareVersions": "syngo_MR_E11",
  "SpacingBetweenSlices": 2,
  "StationName": "AWP166018",
  "TaskName": "sfprescaled",
  "TotalReadoutTime": 0.0597409,
  "TxRefAmp": 215.643,
  "WipMemBlock": "34fe9896-9353-452e-b995-7f6b7128c97a||Sequence: R016 ve11c/master r/8780670; Nov 27 2017 15:05:12 by eja",
  "dcmmeta_affine": [
    [-1.9998902082443237, 0.004537566099315882, 0.02045702561736107, 110.97503662109375],
    [8.4012295701541e-05, 1.9542652368545532, -0.42526179552078247, -81.9362564086914],
    [0.020954053848981857, 0.42523759603500366, 1.954158067703247, -73.46516418457031],
    [0.0, 0.0, 0.0, 1.0]
],
  "dcmmeta_reorient_transform": [
    [0.0, -1.0, 0.0, 103.0],
    [1.0, 0.0, 0.0, 0.0],
    [0.0, 0.0, 1.0, 0.0],
    [0.0, 0.0, 0.0, 1.0]
],
  "dcmmeta_shape": [104, 104, 66, 264],
  "dcmmeta_slice_dim": 2,
  "dcmmeta_version": 0.6,
  "global": {
    "const": {
      "AccessionNumber": "jtu6jhmb",
  "NumberOfVolumes": 264,
      "AcquisitionMatrix": [104, 0, 0, 104],
      "AngioFlag": "N",
      "BitsAllocated": 16,
      "BitsStored": 16,
      "BodyPartExamined": "BRAIN",
      "Columns": 936,
      "EchoNumbers": 1,
      "EchoTime": 37.0,
      "EchoTrainLength": 104,
      "FlipAngle": 68.0,
      "HighBit": 15,
      "ImageOrientationPatient": [0.99994511356325, -4.20061489e-05, 0.01047702708094, 0.00226878296554, 0.97713259133393, -0.212618794035],
      "ImagePositionPatient": [-945.28436869193, -932.29242349066, 138.51625926815],
      "ImageType": [
        "ORIGINAL",
        "PRIMARY",
        "M",
        "MB",
        "ND",
        "MOSAIC"
],
      "ImagedNucleus": "1H",
      "ImagingFrequency": 123.191219,
      "InPlanePhaseEncodingDirection": "COL",
      "MRAcquisitionType": "2D",
      "MagneticFieldStrength": 3.0,
      "Manufacturer": "SIEMENS",
      "ManufacturerModelName": "Prisma",
      "Modality": "MR",
      "NumberOfAverages": 1.0,
      "NumberOfPhaseEncodingSteps": 104,
      "PercentPhaseFieldOfView": 100.0,
      "PercentSampling": 100.0,
      "PerformedProcedureStepStartTime": "115204.018000",
      "PhotometricInterpretation": "MONOCHROME2",
      "PixelBandwidth": 2290.0,
      "PixelRepresentation": 0,
      "PixelSpacing": [2.0, 2.0],
      "ProtocolName": "task-sfprescaled_mbepi_s6_2mm_66sl_PA_TR1.0-",
      "RepetitionTime": 1000.0,
      "Rows": 936,
      "SAR": 0.07064645224032,
      "SamplesPerPixel": 1,
      "ScanOptions": "FS",
      "ScanningSequence": "EP",
      "SequenceName": "epfid2d1_104",
      "SequenceVariant": [
        "SK",
        "SS"
],
      "SeriesDescription": "task-sfprescaled_mbepi_s6_2mm_66sl_PA_TR1.0-",
      "SeriesNumber": 20,
      "SeriesTime": "123349.019000",
      "SliceLocation": -53.223982195688,
      "SliceThickness": 2.0,
      "SmallestImagePixelValue": 0,
      "SoftwareVersions": "syngo MR E11",
      "SpacingBetweenSlices": 1.9999999725963,
      "SpecificCharacterSet": "ISO_IR 100",
      "StudyID": "1",
      "StudyTime": "115203.950000",
      "TransmitCoilName": "Body",
      "VariableFlipAngleFlag": "N",
      "WindowCenterWidthExplanation": "Algo1",
      "dBdt": 0.0},
    "slices": {}
  },
  "time": {
    "samples": {
      "AcquisitionNumber": [1, 2, 3, 4, 5, 6, 7, 8, 9, 10, 11, 12, 13, 14, 15, 16, 17, 18, 19, 20, 21, 22, 23, 24, 25, 26, 27, 28, 29, 30, 31, 32, 33, 34, 35, 36, 37, 38, 39, 40, 41, 42, 43, 44, 45, 46, 47, 48, 49, 50, 51, 52, 53, 54, 55, 56, 57, 58, 59, 60, 61, 62, 63, 64, 65, 66, 67, 68, 69, 70, 71, 72, 73, 74, 75, 76, 77, 78, 79, 80, 81, 82, 83, 84, 85, 86, 87, 88, 89, 90, 91, 92, 93, 94, 95, 96, 97, 98, 99, 100, 101, 102, 103, 104, 105, 106, 107, 108, 109, 110, 111, 112, 113, 114, 115, 116, 117, 118, 119, 120, 121, 122, 123, 124, 125, 126, 127, 128, 129, 130, 131, 132, 133, 134, 135, 136, 137, 138, 139, 140, 141, 142, 143, 144, 145, 146, 147, 148, 149, 150, 151, 152, 153, 154, 155, 156, 157, 158, 159, 160, 161, 162, 163, 164, 165, 166, 167, 168, 169, 170, 171, 172, 173, 174, 175, 176, 177, 178, 179, 180, 181, 182, 183, 184, 185, 186, 187, 188, 189, 190, 191, 192, 193, 194, 195, 196, 197, 198, 199, 200, 201, 202, 203, 204, 205, 206, 207, 208, 209, 210, 211, 212, 213, 214, 215, 216, 217, 218, 219, 220, 221, 222, 223, 224, 225, 226, 227, 228, 229, 230, 231, 232, 233, 234, 235, 236, 237, 238, 239, 240, 241, 242, 243, 244, 245, 246, 247, 248, 249, 250, 251, 252, 253, 254, 255, 256, 257, 258, 259, 260, 261, 262, 263, 264],
      "AcquisitionTime": ["123248.530000", "123249.530000", "123250.530000", "123251.530000", "123252.530000", "123253.530000", "123254.530000", "123255.530000", "123256.530000", "123257.530000", "123258.530000", "123259.530000", "123300.530000", "123301.530000", "123302.530000", "123303.530000", "123304.530000", "123305.530000", "123306.530000", "123307.530000", "123308.530000", "123309.530000", "123310.530000", "123311.530000", "123312.530000", "123313.530000", "123314.530000", "123315.530000", "123316.530000", "123317.530000", "123318.530000", "123319.530000", "123320.530000", "123321.530000", "123322.530000", "123323.530000", "123324.530000", "123325.530000", "123326.530000", "123327.530000", "123328.530000", "123329.530000", "123330.530000", "123331.530000", "123332.530000", "123333.530000", "123334.530000", "123335.530000", "123336.530000", "123337.530000", "123338.530000", "123339.530000", "123340.530000", "123341.530000", "123342.530000", "123343.530000", "123344.530000", "123345.530000", "123346.530000", "123347.530000", "123348.530000", "123349.530000", "123350.530000", "123351.530000", "123352.530000", "123353.530000", "123354.530000", "123355.530000", "123356.530000", "123357.530000", "123358.530000", "123359.530000", "123400.530000", "123401.530000", "123402.530000", "123403.530000", "123404.530000", "123405.530000", "123406.530000", "123407.530000", "123408.530000", "123409.530000", "123410.530000", "123411.530000", "123412.530000", "123413.530000", "123414.530000", "123415.530000", "123416.530000", "123417.530000", "123418.530000", "123419.530000", "123420.530000", "123421.530000", "123422.530000", "123423.530000", "123424.530000", "123425.530000", "123426.530000", "123427.530000", "123428.530000", "123429.530000", "123430.530000", "123431.530000", "123432.530000", "123433.530000", "123434.530000", "123435.530000", "123436.530000", "123437.530000", "123438.530000", "123439.530000", "123440.530000", "123441.530000", "123442.530000", "123443.530000", "123444.530000", "123445.530000", "123446.530000", "123447.530000", "123448.530000", "123449.530000", "123450.530000", "123451.530000", "123452.530000", "123453.530000", "123454.530000", "123455.530000", "123456.530000", "123457.530000", "123458.530000", "123459.530000", "123500.530000", "123501.530000", "123502.530000", "123503.530000", "123504.530000", "123505.530000", "123506.530000", "123507.530000", "123508.530000", "123509.530000", "123510.530000", "123511.530000", "123512.530000", "123513.530000", "123514.530000", "123515.530000", "123516.530000", "123517.530000", "123518.530000", "123519.530000", "123520.530000", "123521.530000", "123522.530000", "123523.530000", "123524.530000", "123525.530000", "123526.530000", "123527.530000", "123528.530000", "123529.530000", "123530.530000", "123531.530000", "123532.530000", "123533.530000", "123534.530000", "123535.530000", "123536.530000", "123537.530000", "123538.530000", "123539.530000", "123540.530000", "123541.530000", "123542.530000", "123543.530000", "123544.530000", "123545.530000", "123546.530000", "123547.530000", "123548.530000", "123549.530000", "123550.530000", "123551.530000", "123552.530000", "123553.530000", "123554.530000", "123555.530000", "123556.530000", "123557.530000", "123558.530000", "123559.530000", "123600.530000", "123601.530000", "123602.530000", "123603.530000", "123604.530000", "123605.530000", "123606.530000", "123607.530000", "123608.530000", "123609.530000", "123610.530000", "123611.530000", "123612.530000", "123613.530000", "123614.530000", "123615.530000", "123616.530000", "123617.530000", "123618.530000", "123619.530000", "123620.530000", "123621.530000", "123622.530000", "123623.530000", "123624.530000", "123625.530000", "123626.530000", "123627.530000", "123628.530000", "123629.530000", "123630.530000", "123631.530000", "123632.530000", "123633.530000", "123634.530000", "123635.530000", "123636.530000", "123637.530000", "123638.530000", "123639.530000", "123640.530000", "123641.530000", "123642.530000", "123643.530000", "123644.530000", "123645.530000", "123646.530000", "123647.530000", "123648.530000", "123649.530000", "123650.530000", "123651.530000", "123652.530000", "123653.530000", "123654.530000", "123655.530000", "123656.530000", "123657.530000", "123658.530000", "123659.530000", "123700.530000", "123701.530000", "123702.530000", "123703.530000", "123704.530000", "123705.530000", "123706.530000", "123707.530000", "123708.530000", "123709.530000", "123710.530000", "123711.530000"],
      "ContentTime": ["123349.021000", "123349.042000", "123349.045000", "123349.048000", "123353.990000", "123353.993000", "123353.996000", "123354.000000", "123354.003000", "123354.015000", "123354.018000", "123358.991000", "123358.994000", "123358.997000", "123359.001000", "123359.004000", "123359.006000", "123359.009000", "123403.991000", "123403.994000", "123403.997000", "123404.001000", "123404.004000", "123404.007000", "123404.010000", "123408.990000", "123408.993000", "123408.996000", "123409.000000", "123409.003000", "123409.012000", "123409.015000", "123409.018000", "123413.991000", "123413.994000", "123413.997000", "123414.000000", "123414.004000", "123414.006000", "123414.009000", "123418.991000", "123418.994000", "123418.996000", "123419.000000", "123419.003000", "123419.006000", "123419.009000", "123423.990000", "123423.993000", "123423.996000", "123424.000000", "123424.003000", "123424.006000", "123424.009000", "123428.990000", "123428.993000", "123428.996000", "123429.000000", "123429.002000", "123429.017000", "123429.020000", "123433.991000", "123433.994000", "123433.997000", "123434.000000", "123434.004000", "123434.007000", "123434.009000", "123438.991000", "123438.994000", "123438.997000", "123439.001000", "123439.004000", "123439.006000", "123439.009000", "123443.990000", "123443.993000", "123443.996000", "123443.998000", "123444.002000", "123444.005000", "123444.008000", "123448.991000", "123448.994000", "123448.998000", "123449.002000", "123449.005000", "123449.008000", "123449.011000", "123453.991000", "123453.994000", "123453.997000", "123454.000000", "123454.004000", "123454.007000", "123454.010000", "123458.990000", "123458.993000", "123458.996000", "123459.000000", "123459.003000", "123459.006000", "123459.008000", "123503.990000", "123503.993000", "123503.996000", "123504.000000", "123504.003000", "123504.006000", "123504.009000", "123508.991000", "123508.994000", "123508.997000", "123509.001000", "123509.004000", "123509.007000", "123509.009000", "123513.991000", "123513.994000", "123513.997000", "123514.001000", "123514.004000", "123514.007000", "123514.010000", "123518.990000", "123518.993000", "123518.996000", "123519.000000", "123519.003000", "123519.005000", "123519.008000", "123523.991000", "123523.994000", "123523.997000", "123524.001000", "123524.004000", "123524.006000", "123524.010000", "123528.991000", "123528.994000", "123528.997000", "123529.001000", "123529.004000", "123529.007000", "123529.010000", "123533.990000", "123533.993000", "123533.996000", "123534.000000", "123534.003000", "123534.006000", "123534.009000", "123538.990000", "123538.993000", "123538.996000", "123539.000000", "123539.003000", "123539.006000", "123539.009000", "123543.991000", "123543.994000", "123543.997000", "123544.001000", "123544.004000", "123544.007000", "123544.010000", "123548.991000", "123548.994000", "123548.997000", "123549.001000", "123549.004000", "123549.007000", "123549.010000", "123553.990000", "123553.993000", "123553.996000", "123554.000000", "123554.003000", "123554.006000", "123554.009000", "123558.991000", "123558.994000", "123558.997000", "123559.001000", "123559.004000", "123559.007000", "123559.010000", "123603.991000", "123603.994000", "123603.997000", "123604.001000", "123604.004000", "123604.007000", "123604.010000", "123608.990000", "123608.993000", "123608.996000", "123609.000000", "123609.003000", "123613.990000", "123613.993000", "123613.996000", "123614.000000", "123614.004000", "123618.991000", "123618.994000", "123618.997000", "123619.001000", "123619.004000", "123623.991000", "123623.994000", "123623.997000", "123624.001000", "123624.004000", "123628.990000", "123628.993000", "123628.996000", "123629.000000", "123629.003000", "123633.991000", "123633.994000", "123633.997000", "123634.001000", "123634.004000", "123638.991000", "123638.994000", "123638.997000", "123639.001000", "123639.004000", "123643.990000", "123643.993000", "123643.996000", "123644.000000", "123644.003000", "123648.991000", "123648.994000", "123648.997000", "123649.000000", "123649.003000", "123653.991000", "123653.994000", "123653.997000", "123654.001000", "123654.004000", "123658.991000", "123658.994000", "123658.997000", "123659.001000", "123659.004000", "123703.990000", "123703.993000", "123703.996000", "123704.000000", "123704.013000", "123708.991000", "123708.994000", "123708.997000", "123709.001000", "123709.004000", "123713.356000", "123713.361000", "123713.365000", "123713.371000", "123713.375000"],
      "InstanceCreationTime": ["123349.021000", "123349.042000", "123349.045000", "123349.048000", "123353.990000", "123353.993000", "123353.996000", "123354.000000", "123354.003000", "123354.015000", "123354.018000", "123358.991000", "123358.994000", "123358.997000", "123359.001000", "123359.004000", "123359.006000", "123359.009000", "123403.991000", "123403.994000", "123403.997000", "123404.001000", "123404.004000", "123404.007000", "123404.010000", "123408.990000", "123408.993000", "123408.996000", "123409.000000", "123409.003000", "123409.012000", "123409.015000", "123409.018000", "123413.991000", "123413.994000", "123413.997000", "123414.000000", "123414.004000", "123414.006000", "123414.009000", "123418.991000", "123418.994000", "123418.996000", "123419.000000", "123419.003000", "123419.006000", "123419.009000", "123423.990000", "123423.993000", "123423.996000", "123424.000000", "123424.003000", "123424.006000", "123424.009000", "123428.990000", "123428.993000", "123428.996000", "123429.000000", "123429.002000", "123429.017000", "123429.020000", "123433.991000", "123433.994000", "123433.997000", "123434.000000", "123434.004000", "123434.007000", "123434.009000", "123438.991000", "123438.994000", "123438.997000", "123439.001000", "123439.004000", "123439.006000", "123439.009000", "123443.990000", "123443.993000", "123443.996000", "123443.998000", "123444.002000", "123444.005000", "123444.008000", "123448.991000", "123448.994000", "123448.998000", "123449.002000", "123449.005000", "123449.008000", "123449.011000", "123453.991000", "123453.994000", "123453.997000", "123454.000000", "123454.004000", "123454.007000", "123454.010000", "123458.990000", "123458.993000", "123458.996000", "123459.000000", "123459.003000", "123459.006000", "123459.008000", "123503.990000", "123503.993000", "123503.996000", "123504.000000", "123504.003000", "123504.006000", "123504.009000", "123508.991000", "123508.994000", "123508.997000", "123509.001000", "123509.004000", "123509.007000", "123509.009000", "123513.991000", "123513.994000", "123513.997000", "123514.001000", "123514.004000", "123514.007000", "123514.010000", "123518.990000", "123518.993000", "123518.996000", "123519.000000", "123519.003000", "123519.005000", "123519.008000", "123523.991000", "123523.994000", "123523.997000", "123524.001000", "123524.004000", "123524.006000", "123524.010000", "123528.991000", "123528.994000", "123528.997000", "123529.001000", "123529.004000", "123529.007000", "123529.010000", "123533.990000", "123533.993000", "123533.996000", "123534.000000", "123534.003000", "123534.006000", "123534.009000", "123538.990000", "123538.993000", "123538.996000", "123539.000000", "123539.003000", "123539.006000", "123539.009000", "123543.991000", "123543.994000", "123543.997000", "123544.001000", "123544.004000", "123544.007000", "123544.010000", "123548.991000", "123548.994000", "123548.997000", "123549.001000", "123549.004000", "123549.007000", "123549.010000", "123553.990000", "123553.993000", "123553.996000", "123554.000000", "123554.003000", "123554.006000", "123554.009000", "123558.991000", "123558.994000", "123558.997000", "123559.001000", "123559.004000", "123559.007000", "123559.010000", "123603.991000", "123603.994000", "123603.997000", "123604.001000", "123604.004000", "123604.007000", "123604.010000", "123608.990000", "123608.993000", "123608.996000", "123609.000000", "123609.003000", "123613.990000", "123613.993000", "123613.996000", "123614.000000", "123614.004000", "123618.991000", "123618.994000", "123618.997000", "123619.001000", "123619.004000", "123623.991000", "123623.994000", "123623.997000", "123624.001000", "123624.004000", "123628.990000", "123628.993000", "123628.996000", "123629.000000", "123629.003000", "123633.991000", "123633.994000", "123633.997000", "123634.001000", "123634.004000", "123638.991000", "123638.994000", "123638.997000", "123639.001000", "123639.004000", "123643.990000", "123643.993000", "123643.996000", "123644.000000", "123644.003000", "123648.991000", "123648.994000", "123648.997000", "123649.000000", "123649.003000", "123653.991000", "123653.994000", "123653.997000", "123654.001000", "123654.004000", "123658.991000", "123658.994000", "123658.997000", "123659.001000", "123659.004000", "123703.990000", "123703.993000", "123703.996000", "123704.000000", "123704.013000", "123708.991000", "123708.994000", "123708.997000", "123709.001000", "123709.004000", "123713.356000", "123713.361000", "123713.365000", "123713.371000", "123713.375000"],
      "InstanceNumber": [1, 2, 3, 4, 5, 6, 7, 8, 9, 10, 11, 12, 13, 14, 15, 16, 17, 18, 19, 20, 21, 22, 23, 24, 25, 26, 27, 28, 29, 30, 31, 32, 33, 34, 35, 36, 37, 38, 39, 40, 41, 42, 43, 44, 45, 46, 47, 48, 49, 50, 51, 52, 53, 54, 55, 56, 57, 58, 59, 60, 61, 62, 63, 64, 65, 66, 67, 68, 69, 70, 71, 72, 73, 74, 75, 76, 77, 78, 79, 80, 81, 82, 83, 84, 85, 86, 87, 88, 89, 90, 91, 92, 93, 94, 95, 96, 97, 98, 99, 100, 101, 102, 103, 104, 105, 106, 107, 108, 109, 110, 111, 112, 113, 114, 115, 116, 117, 118, 119, 120, 121, 122, 123, 124, 125, 126, 127, 128, 129, 130, 131, 132, 133, 134, 135, 136, 137, 138, 139, 140, 141, 142, 143, 144, 145, 146, 147, 148, 149, 150, 151, 152, 153, 154, 155, 156, 157, 158, 159, 160, 161, 162, 163, 164, 165, 166, 167, 168, 169, 170, 171, 172, 173, 174, 175, 176, 177, 178, 179, 180, 181, 182, 183, 184, 185, 186, 187, 188, 189, 190, 191, 192, 193, 194, 195, 196, 197, 198, 199, 200, 201, 202, 203, 204, 205, 206, 207, 208, 209, 210, 211, 212, 213, 214, 215, 216, 217, 218, 219, 220, 221, 222, 223, 224, 225, 226, 227, 228, 229, 230, 231, 232, 233, 234, 235, 236, 237, 238, 239, 240, 241, 242, 243, 244, 245, 246, 247, 248, 249, 250, 251, 252, 253, 254, 255, 256, 257, 258, 259, 260, 261, 262, 263, 264],
      "LargestImagePixelValue": [32339, 31559, 30913, 30470, 31048, 30432, 30337, 31105, 30933, 30517, 30070, 30571, 30639, 30595, 30679, 30540, 30202, 30554, 30613, 30528, 30696, 30005, 30619, 30339, 30258, 30380, 30679, 30428, 30405, 30425, 30638, 30567, 30297, 30194, 30667, 30177, 30086, 30366, 30414, 30694, 30198, 30198, 31035, 30523, 30044, 30247, 30600, 30464, 30170, 30371, 30390, 30394, 30103, 30238, 30841, 29950, 30397, 30356, 30375, 30195, 30215, 30391, 30313, 30198, 29932, 30527, 30481, 30256, 30586, 30385, 30286, 30406, 30397, 29880, 30307, 30268, 30033, 30671, 30785, 30332, 30408, 30113, 30488, 30418, 30437, 30282, 30150, 30230, 30452, 30870, 30449, 30153, 30721, 30329, 30257, 30306, 30736, 30203, 30063, 30018, 30493, 30330, 30468, 29973, 29879, 30267, 30109, 29929, 30563, 30208, 30293, 30463, 30097, 30414, 30532, 30123, 30388, 30377, 29770, 30542, 30335, 30063, 30256, 30030, 30395, 30278, 29693, 29933, 30550, 29718, 30211, 30441, 30376, 29682, 29596, 30006, 30101, 30608, 30122, 30453, 29898, 29953, 30494, 29921, 29997, 30172, 29790, 30161, 30163, 29973, 29969, 30293, 30508, 29985, 30125, 30374, 29716, 29871, 29940, 29960, 30182, 29614, 30007, 30553, 29957, 29950, 29853, 29906, 29866, 30202, 30122, 29877, 30375, 30205, 30045, 29961, 30002, 30064, 30060, 29928, 29723, 29832, 29809, 29705, 29572, 30034, 29583, 29520, 29893, 29753, 29923, 29745, 29736, 30149, 29858, 29620, 29599, 30283, 29896, 29249, 29528, 29835, 29699, 29712, 29949, 29778, 29843, 29635, 29950, 29353, 30023, 29906, 29628, 29843, 30151, 30077, 29901, 29897, 29883, 29967, 29944, 30014, 30464, 29947, 29913, 29973, 29621, 29667, 29754, 30114, 29726, 29212, 29679, 29975, 29363, 29576, 29940, 30018, 29325, 29433, 29754, 29868, 29550, 29771, 29921, 29986, 29650, 30070, 29978, 29817, 29502, 29796, 29784, 30267, 30188, 29836, 30010, 30046, 30026, 29876, 30082, 30040, 29938, 29516],
      "WindowCenter": [9595.0, 9561.0, 9554.0, 9554.0, 9574.0, 9573.0, 9573.0, 9582.0, 9558.0, 9545.0, 9529.0, 9530.0, 9512.0, 9511.0, 9511.0, 9505.0, 9496.0, 9504.0, 9527.0, 9541.0, 9555.0, 9552.0, 9557.0, 9543.0, 9534.0, 9532.0, 9539.0, 9532.0, 9540.0, 9548.0, 9555.0, 9548.0, 9541.0, 9534.0, 9530.0, 9508.0, 9507.0, 9520.0, 9519.0, 9525.0, 9530.0, 9548.0, 9568.0, 9548.0, 9533.0, 9547.0, 9547.0, 9542.0, 9541.0, 9549.0, 9542.0, 9532.0, 9525.0, 9525.0, 9534.0, 9515.0, 9520.0, 9519.0, 9518.0, 9498.0, 9498.0, 9504.0, 9503.0, 9497.0, 9506.0, 9521.0, 9521.0, 9514.0, 9529.0, 9545.0, 9541.0, 9535.0, 9533.0, 9519.0, 9507.0, 9492.0, 9479.0, 9491.0, 9498.0, 9499.0, 9500.0, 9510.0, 9517.0, 9519.0, 9513.0, 9509.0, 9491.0, 9496.0, 9503.0, 9518.0, 9510.0, 9506.0, 9526.0, 9521.0, 9520.0, 9521.0, 9535.0, 9539.0, 9540.0, 9543.0, 9541.0, 9533.0, 9531.0, 9533.0, 9527.0, 9522.0, 9516.0, 9516.0, 9527.0, 9504.0, 9512.0, 9513.0, 9507.0, 9505.0, 9502.0, 9504.0, 9517.0, 9517.0, 9515.0, 9539.0, 9546.0, 9542.0, 9541.0, 9527.0, 9513.0, 9503.0, 9503.0, 9517.0, 9516.0, 9501.0, 9500.0, 9507.0, 9499.0, 9484.0, 9486.0, 9505.0, 9508.0, 9510.0, 9506.0, 9525.0, 9517.0, 9517.0, 9530.0, 9518.0, 9507.0, 9506.0, 9492.0, 9493.0, 9486.0, 9495.0, 9523.0, 9546.0, 9542.0, 9544.0, 9537.0, 9526.0, 9503.0, 9503.0, 9509.0, 9499.0, 9495.0, 9491.0, 9505.0, 9503.0, 9491.0, 9498.0, 9491.0, 9491.0, 9492.0, 9499.0, 9497.0, 9494.0, 9513.0, 9508.0, 9513.0, 9504.0, 9513.0, 9523.0, 9519.0, 9533.0, 9535.0, 9534.0, 9520.0, 9519.0, 9515.0, 9526.0, 9505.0, 9504.0, 9509.0, 9503.0, 9500.0, 9499.0, 9500.0, 9507.0, 9509.0, 9525.0, 9521.0, 9538.0, 9509.0, 9490.0, 9502.0, 9509.0, 9516.0, 9510.0, 9515.0, 9509.0, 9508.0, 9511.0, 9524.0, 9511.0, 9515.0, 9515.0, 9530.0, 9541.0, 9543.0, 9542.0, 9530.0, 9529.0, 9513.0, 9514.0, 9509.0, 9509.0, 9513.0, 9507.0, 9510.0, 9525.0, 9520.0, 9523.0, 9523.0, 9528.0, 9520.0, 9509.0, 9528.0, 9520.0, 9514.0, 9516.0, 9536.0, 9528.0, 9515.0, 9507.0, 9509.0, 9508.0, 9511.0, 9519.0, 9515.0, 9507.0, 9507.0, 9524.0, 9526.0, 9519.0, 9510.0, 9525.0, 9536.0, 9555.0, 9550.0, 9530.0, 9519.0, 9507.0, 9502.0, 9489.0, 9487.0, 9485.0, 9483.0, 9474.0],
      "WindowWidth": [20541.0, 20464.0, 20452.0, 20463.0, 20504.0, 20506.0, 20505.0, 20515.0, 20462.0, 20435.0, 20402.0, 20397.0, 20355.0, 20353.0, 20353.0, 20341.0, 20322.0, 20340.0, 20391.0, 20429.0, 20457.0, 20456.0, 20465.0, 20437.0, 20415.0, 20411.0, 20423.0, 20411.0, 20428.0, 20447.0, 20459.0, 20443.0, 20431.0, 20417.0, 20402.0, 20356.0, 20352.0, 20377.0, 20376.0, 20388.0, 20404.0, 20446.0, 20486.0, 20444.0, 20414.0, 20442.0, 20443.0, 20436.0, 20434.0, 20450.0, 20432.0, 20409.0, 20392.0, 20394.0, 20406.0, 20371.0, 20377.0, 20376.0, 20370.0, 20331.0, 20331.0, 20345.0, 20344.0, 20334.0, 20356.0, 20389.0, 20388.0, 20375.0, 20405.0, 20439.0, 20430.0, 20417.0, 20412.0, 20380.0, 20346.0, 20308.0, 20283.0, 20307.0, 20322.0, 20328.0, 20334.0, 20354.0, 20369.0, 20374.0, 20362.0, 20349.0, 20315.0, 20325.0, 20340.0, 20368.0, 20352.0, 20351.0, 20388.0, 20381.0, 20379.0, 20384.0, 20415.0, 20427.0, 20431.0, 20436.0, 20429.0, 20410.0, 20407.0, 20414.0, 20400.0, 20382.0, 20372.0, 20371.0, 20388.0, 20343.0, 20357.0, 20363.0, 20352.0, 20342.0, 20335.0, 20344.0, 20368.0, 20368.0, 20371.0, 20423.0, 20441.0, 20434.0, 20428.0, 20399.0, 20362.0, 20338.0, 20345.0, 20378.0, 20375.0, 20342.0, 20338.0, 20353.0, 20337.0, 20308.0, 20314.0, 20354.0, 20360.0, 20358.0, 20352.0, 20391.0, 20379.0, 20377.0, 20402.0, 20376.0, 20350.0, 20342.0, 20315.0, 20314.0, 20299.0, 20322.0, 20388.0, 20438.0, 20434.0, 20438.0, 20424.0, 20393.0, 20345.0, 20343.0, 20353.0, 20329.0, 20317.0, 20315.0, 20344.0, 20338.0, 20315.0, 20329.0, 20317.0, 20319.0, 20324.0, 20339.0, 20333.0, 20331.0, 20369.0, 20364.0, 20369.0, 20350.0, 20370.0, 20392.0, 20383.0, 20410.0, 20418.0, 20411.0, 20381.0, 20379.0, 20379.0, 20395.0, 20352.0, 20348.0, 20358.0, 20345.0, 20335.0, 20335.0, 20339.0, 20354.0, 20361.0, 20395.0, 20393.0, 20421.0, 20361.0, 20323.0, 20345.0, 20361.0, 20374.0, 20365.0, 20371.0, 20361.0, 20359.0, 20368.0, 20394.0, 20370.0, 20373.0, 20371.0, 20407.0, 20430.0, 20432.0, 20427.0, 20406.0, 20402.0, 20367.0, 20363.0, 20355.0, 20356.0, 20359.0, 20347.0, 20358.0, 20392.0, 20386.0, 20394.0, 20398.0, 20404.0, 20388.0, 20371.0, 20406.0, 20385.0, 20374.0, 20384.0, 20421.0, 20403.0, 20377.0, 20356.0, 20355.0, 20353.0, 20364.0, 20381.0, 20372.0, 20351.0, 20354.0, 20391.0, 20397.0, 20381.0, 20361.0, 20393.0, 20424.0, 20459.0, 20447.0, 20406.0, 20376.0, 20343.0, 20328.0, 20304.0, 20301.0, 20294.0, 20290.0, 20280.0]
    },
    "slices": {}
  }
}