{
  "AcquisitionMatrixPE": 104,
  "AcquisitionNumber": 1,
  "AcquisitionTime": "12:42:37.542500",
  "BandwidthPerPixelPhaseEncode": 16.578,
  "BaseResolution": 104,
  "BodyPartExamined": "BRAIN",
  "ConsistencyInfo": "N4_VE11C_LATEST_20160120",
  "ConversionSoftware": "dcm2niix",
  "ConversionSoftwareVersion": "v1.0.20190410  GCC6.3.0",
  "DerivedVendorReportedEchoSpacing": 0.000580009,
  "DeviceSerialNumber": "166018",
  "DwellTime": 2.1e-06,
  "EchoTime": 0.037,
  "EchoTrainLength": 104,
  "EffectiveEchoSpacing": 0.000580009,
  "FlipAngle": 68,
  "ImageComments": "Unaliased_MB6_PE3_LB",
  "ImageOrientationPatientDICOM": [0.999945, -4.20061e-05, 0.010477, 0.00226878, 0.977133, -0.212619],
  "ImageType": [
    "ORIGINAL",
    "PRIMARY",
    "M",
    "MB",
    "ND",
    "MOSAIC"
],
  "ImagingFrequency": 123.191,
  "InPlanePhaseEncodingDirectionDICOM": "COL",
  "InstitutionAddress": "Washington_Place_6_NYC_NYC_US_10003",
  "InstitutionName": "NYU_Center_for_Brain_Imaging",
  "InstitutionalDepartmentName": "Department",
  "MRAcquisitionType": "2D",
  "MagneticFieldStrength": 3,
  "Manufacturer": "Siemens",
  "ManufacturersModelName": "Prisma",
  "Modality": "MR",
  "MultibandAccelerationFactor": 6,
  "PartialFourier": 1,
  "PatientPosition": "HFS",
  "PercentPhaseFOV": 100,
  "PhaseEncodingDirection": "j",
  "PhaseEncodingSteps": 104,
  "PhaseResolution": 1,
  "PixelBandwidth": 2290,
  "ProcedureStepDescription": "Investigators_Winawer",
  "ProtocolName": "task-sfprescaled_mbepi_s6_2mm_66sl_PA_TR1.0-",
  "PulseSequenceDetails": "%CustomerSeq%_cmrr_mbep2d_bold",
  "ReceiveCoilActiveElements": "HC1-7",
  "ReceiveCoilName": "HeadNeck_64",
  "ReconMatrixPE": 104,
  "RepetitionTime": 1,
  "SAR": 0.0706464,
  "ScanOptions": "FS",
  "ScanningSequence": "EP",
  "SequenceName": "epfid2d1_104",
  "SequenceVariant": "SK_SS",
  "SeriesDescription": "task-sfprescaled_mbepi_s6_2mm_66sl_PA_TR1.0-",
  "SeriesNumber": 24,
  "ShimSetting": [283, -12618, -8461, 445, 86, -59, -129, -57],
  "SliceThickness": 2,
  "SliceTiming": [0, 0.535, 0.0875, 0.6225, 0.1775, 0.7125, 0.2675, 0.8025, 0.355, 0.89, 0.445, 0, 0.535, 0.0875, 0.6225, 0.1775, 0.7125, 0.2675, 0.8025, 0.355, 0.89, 0.445, 0, 0.535, 0.0875, 0.6225, 0.1775, 0.7125, 0.2675, 0.8025, 0.355, 0.89, 0.445, 0, 0.535, 0.0875, 0.6225, 0.1775, 0.7125, 0.2675, 0.8025, 0.355, 0.89, 0.445, 0, 0.535, 0.0875, 0.6225, 0.1775, 0.7125, 0.2675, 0.8025, 0.355, 0.89, 0.445, 0, 0.535, 0.0875, 0.6225, 0.1775, 0.7125, 0.2675, 0.8025, 0.355, 0.89, 0.445],
  "SoftwareVersions": "syngo_MR_E11",
  "SpacingBetweenSlices": 2,
  "StationName": "AWP166018",
  "TaskName": "sfprescaled",
  "TotalReadoutTime": 0.0597409,
  "TxRefAmp": 215.643,
  "WipMemBlock": "34fe9896-9353-452e-b995-7f6b7128c97a||Sequence: R016 ve11c/master r/8780670; Nov 27 2017 15:05:12 by eja",
  "dcmmeta_affine": [
    [-1.9998902082443237, 0.004537566099315882, 0.02045702561736107, 110.97503662109375],
    [8.4012295701541e-05, 1.9542652368545532, -0.42526179552078247, -81.9362564086914],
    [0.020954053848981857, 0.42523759603500366, 1.954158067703247, -73.46516418457031],
    [0.0, 0.0, 0.0, 1.0]
],
  "dcmmeta_reorient_transform": [
    [0.0, -1.0, 0.0, 103.0],
    [1.0, 0.0, 0.0, 0.0],
    [0.0, 0.0, 1.0, 0.0],
    [0.0, 0.0, 0.0, 1.0]
],
  "dcmmeta_shape": [104, 104, 66, 264],
  "dcmmeta_slice_dim": 2,
  "dcmmeta_version": 0.6,
  "global": {
    "const": {
      "AccessionNumber": "jtu6jhmb",
  "NumberOfVolumes": 264,
      "AcquisitionMatrix": [104, 0, 0, 104],
      "AngioFlag": "N",
      "BitsAllocated": 16,
      "BitsStored": 16,
      "BodyPartExamined": "BRAIN",
      "Columns": 936,
      "EchoNumbers": 1,
      "EchoTime": 37.0,
      "EchoTrainLength": 104,
      "FlipAngle": 68.0,
      "HighBit": 15,
      "ImageOrientationPatient": [0.99994511356325, -4.20061489e-05, 0.01047702708094, 0.00226878296554, 0.97713259133393, -0.212618794035],
      "ImagePositionPatient": [-945.28436869193, -932.29242349066, 138.51625926815],
      "ImageType": [
        "ORIGINAL",
        "PRIMARY",
        "M",
        "MB",
        "ND",
        "MOSAIC"
],
      "ImagedNucleus": "1H",
      "ImagingFrequency": 123.191219,
      "InPlanePhaseEncodingDirection": "COL",
      "MRAcquisitionType": "2D",
      "MagneticFieldStrength": 3.0,
      "Manufacturer": "SIEMENS",
      "ManufacturerModelName": "Prisma",
      "Modality": "MR",
      "NumberOfAverages": 1.0,
      "NumberOfPhaseEncodingSteps": 104,
      "PercentPhaseFieldOfView": 100.0,
      "PercentSampling": 100.0,
      "PerformedProcedureStepStartTime": "115204.018000",
      "PhotometricInterpretation": "MONOCHROME2",
      "PixelBandwidth": 2290.0,
      "PixelRepresentation": 0,
      "PixelSpacing": [2.0, 2.0],
      "ProtocolName": "task-sfprescaled_mbepi_s6_2mm_66sl_PA_TR1.0-",
      "RepetitionTime": 1000.0,
      "Rows": 936,
      "SAR": 0.07064645224032,
      "SamplesPerPixel": 1,
      "ScanOptions": "FS",
      "ScanningSequence": "EP",
      "SequenceName": "epfid2d1_104",
      "SequenceVariant": [
        "SK",
        "SS"
],
      "SeriesDescription": "task-sfprescaled_mbepi_s6_2mm_66sl_PA_TR1.0-",
      "SeriesNumber": 24,
      "SeriesTime": "124332.986000",
      "SliceLocation": -53.223982195688,
      "SliceThickness": 2.0,
      "SmallestImagePixelValue": 0,
      "SoftwareVersions": "syngo MR E11",
      "SpacingBetweenSlices": 1.9999999725963,
      "SpecificCharacterSet": "ISO_IR 100",
      "StudyID": "1",
      "StudyTime": "115203.950000",
      "TransmitCoilName": "Body",
      "VariableFlipAngleFlag": "N",
      "WindowCenterWidthExplanation": "Algo1",
      "dBdt": 0.0},
    "slices": {}
  },
  "time": {
    "samples": {
      "AcquisitionNumber": [1, 2, 3, 4, 5, 6, 7, 8, 9, 10, 11, 12, 13, 14, 15, 16, 17, 18, 19, 20, 21, 22, 23, 24, 25, 26, 27, 28, 29, 30, 31, 32, 33, 34, 35, 36, 37, 38, 39, 40, 41, 42, 43, 44, 45, 46, 47, 48, 49, 50, 51, 52, 53, 54, 55, 56, 57, 58, 59, 60, 61, 62, 63, 64, 65, 66, 67, 68, 69, 70, 71, 72, 73, 74, 75, 76, 77, 78, 79, 80, 81, 82, 83, 84, 85, 86, 87, 88, 89, 90, 91, 92, 93, 94, 95, 96, 97, 98, 99, 100, 101, 102, 103, 104, 105, 106, 107, 108, 109, 110, 111, 112, 113, 114, 115, 116, 117, 118, 119, 120, 121, 122, 123, 124, 125, 126, 127, 128, 129, 130, 131, 132, 133, 134, 135, 136, 137, 138, 139, 140, 141, 142, 143, 144, 145, 146, 147, 148, 149, 150, 151, 152, 153, 154, 155, 156, 157, 158, 159, 160, 161, 162, 163, 164, 165, 166, 167, 168, 169, 170, 171, 172, 173, 174, 175, 176, 177, 178, 179, 180, 181, 182, 183, 184, 185, 186, 187, 188, 189, 190, 191, 192, 193, 194, 195, 196, 197, 198, 199, 200, 201, 202, 203, 204, 205, 206, 207, 208, 209, 210, 211, 212, 213, 214, 215, 216, 217, 218, 219, 220, 221, 222, 223, 224, 225, 226, 227, 228, 229, 230, 231, 232, 233, 234, 235, 236, 237, 238, 239, 240, 241, 242, 243, 244, 245, 246, 247, 248, 249, 250, 251, 252, 253, 254, 255, 256, 257, 258, 259, 260, 261, 262, 263, 264],
      "AcquisitionTime": ["124237.542500", "124238.542500", "124239.542500", "124240.542500", "124241.542500", "124242.542500", "124243.542500", "124244.542500", "124245.542500", "124246.542500", "124247.542500", "124248.542500", "124249.542500", "124250.542500", "124251.542500", "124252.542500", "124253.542500", "124254.542500", "124255.542500", "124256.542500", "124257.542500", "124258.542500", "124259.542500", "124300.542500", "124301.542500", "124302.542500", "124303.542500", "124304.542500", "124305.542500", "124306.542500", "124307.542500", "124308.542500", "124309.542500", "124310.542500", "124311.542500", "124312.542500", "124313.542500", "124314.542500", "124315.542500", "124316.542500", "124317.542500", "124318.542500", "124319.542500", "124320.542500", "124321.542500", "124322.542500", "124323.542500", "124324.542500", "124325.542500", "124326.542500", "124327.542500", "124328.542500", "124329.542500", "124330.542500", "124331.542500", "124332.542500", "124333.542500", "124334.542500", "124335.542500", "124336.542500", "124337.542500", "124338.542500", "124339.542500", "124340.542500", "124341.542500", "124342.542500", "124343.542500", "124344.542500", "124345.542500", "124346.542500", "124347.542500", "124348.542500", "124349.542500", "124350.542500", "124351.542500", "124352.542500", "124353.542500", "124354.542500", "124355.542500", "124356.542500", "124357.542500", "124358.542500", "124359.542500", "124400.542500", "124401.542500", "124402.542500", "124403.542500", "124404.542500", "124405.542500", "124406.542500", "124407.542500", "124408.542500", "124409.542500", "124410.542500", "124411.542500", "124412.542500", "124413.542500", "124414.542500", "124415.542500", "124416.542500", "124417.542500", "124418.542500", "124419.542500", "124420.542500", "124421.542500", "124422.542500", "124423.542500", "124424.542500", "124425.542500", "124426.542500", "124427.542500", "124428.542500", "124429.542500", "124430.542500", "124431.542500", "124432.542500", "124433.542500", "124434.542500", "124435.542500", "124436.542500", "124437.542500", "124438.542500", "124439.542500", "124440.542500", "124441.542500", "124442.542500", "124443.542500", "124444.542500", "124445.542500", "124446.542500", "124447.542500", "124448.542500", "124449.542500", "124450.542500", "124451.542500", "124452.542500", "124453.542500", "124454.542500", "124455.542500", "124456.542500", "124457.542500", "124458.542500", "124459.542500", "124500.542500", "124501.542500", "124502.542500", "124503.542500", "124504.542500", "124505.542500", "124506.542500", "124507.542500", "124508.542500", "124509.542500", "124510.542500", "124511.542500", "124512.542500", "124513.542500", "124514.542500", "124515.542500", "124516.542500", "124517.542500", "124518.542500", "124519.542500", "124520.542500", "124521.542500", "124522.542500", "124523.542500", "124524.542500", "124525.542500", "124526.542500", "124527.542500", "124528.542500", "124529.542500", "124530.542500", "124531.542500", "124532.542500", "124533.542500", "124534.542500", "124535.542500", "124536.542500", "124537.542500", "124538.542500", "124539.542500", "124540.542500", "124541.542500", "124542.542500", "124543.542500", "124544.542500", "124545.542500", "124546.542500", "124547.542500", "124548.542500", "124549.542500", "124550.542500", "124551.542500", "124552.542500", "124553.542500", "124554.542500", "124555.542500", "124556.542500", "124557.542500", "124558.542500", "124559.542500", "124600.542500", "124601.542500", "124602.542500", "124603.542500", "124604.542500", "124605.542500", "124606.542500", "124607.542500", "124608.542500", "124609.542500", "124610.542500", "124611.542500", "124612.542500", "124613.542500", "124614.542500", "124615.542500", "124616.542500", "124617.542500", "124618.542500", "124619.542500", "124620.542500", "124621.542500", "124622.542500", "124623.542500", "124624.542500", "124625.542500", "124626.542500", "124627.542500", "124628.542500", "124629.542500", "124630.542500", "124631.542500", "124632.542500", "124633.542500", "124634.542500", "124635.542500", "124636.542500", "124637.542500", "124638.542500", "124639.542500", "124640.542500", "124641.542500", "124642.542500", "124643.542500", "124644.542500", "124645.542500", "124646.542500", "124647.542500", "124648.542500", "124649.542500", "124650.542500", "124651.542500", "124652.542500", "124653.542500", "124654.542500", "124655.542500", "124656.542500", "124657.542500", "124658.542500", "124659.542500", "124700.542500"],
      "ContentTime": ["124332.989000", "124332.992000", "124332.995000", "124332.998000", "124333.002000", "124333.005000", "124337.947000", "124337.955000", "124337.958000", "124337.961000", "124337.964000", "124337.967000", "124337.970000", "124342.947000", "124342.950000", "124342.953000", "124342.956000", "124342.959000", "124342.967000", "124342.970000", "124347.947000", "124347.950000", "124347.953000", "124347.956000", "124347.959000", "124347.962000", "124347.965000", "124347.968000", "124352.948000", "124352.951000", "124352.954000", "124352.957000", "124352.960000", "124352.963000", "124352.966000", "124357.947000", "124357.950000", "124357.953000", "124357.956000", "124357.959000", "124357.962000", "124357.964000", "124402.947000", "124402.950000", "124402.953000", "124402.963000", "124402.966000", "124402.969000", "124402.972000", "124407.948000", "124407.951000", "124407.954000", "124407.957000", "124407.960000", "124407.963000", "124407.966000", "124412.947000", "124412.950000", "124412.953000", "124412.956000", "124412.959000", "124412.962000", "124412.965000", "124417.947000", "124417.950000", "124417.953000", "124417.956000", "124417.959000", "124417.962000", "124417.965000", "124422.947000", "124422.950000", "124422.953000", "124422.956000", "124422.959000", "124422.962000", "124422.965000", "124427.948000", "124427.951000", "124427.954000", "124427.957000", "124427.960000", "124427.963000", "124427.981000", "124432.947000", "124432.950000", "124432.953000", "124432.956000", "124432.959000", "124432.962000", "124432.964000", "124437.947000", "124437.950000", "124437.953000", "124437.956000", "124437.959000", "124437.962000", "124437.965000", "124442.948000", "124442.951000", "124442.954000", "124442.957000", "124442.960000", "124442.963000", "124442.966000", "124447.947000", "124447.950000", "124447.953000", "124447.956000", "124447.967000", "124447.970000", "124447.973000", "124452.947000", "124452.950000", "124452.953000", "124452.956000", "124452.959000", "124452.962000", "124452.965000", "124457.947000", "124457.950000", "124457.953000", "124457.956000", "124457.959000", "124457.962000", "124457.965000", "124457.968000", "124502.949000", "124502.952000", "124502.955000", "124502.959000", "124502.962000", "124502.966000", "124507.947000", "124507.950000", "124507.953000", "124507.956000", "124507.959000", "124507.962000", "124507.965000", "124512.947000", "124512.950000", "124512.954000", "124512.957000", "124512.961000", "124512.963000", "124512.967000", "124517.948000", "124517.951000", "124517.954000", "124517.957000", "124517.960000", "124517.963000", "124517.972000", "124517.976000", "124522.947000", "124522.950000", "124522.953000", "124522.956000", "124522.959000", "124522.962000", "124522.965000", "124527.947000", "124527.950000", "124527.953000", "124527.956000", "124527.959000", "124527.962000", "124527.965000", "124532.947000", "124532.950000", "124532.953000", "124532.956000", "124532.959000", "124537.948000", "124537.951000", "124537.954000", "124537.957000", "124537.960000", "124542.947000", "124542.950000", "124542.953000", "124542.956000", "124542.959000", "124547.947000", "124547.950000", "124547.953000", "124547.956000", "124547.959000", "124552.948000", "124552.951000", "124552.954000", "124552.957000", "124552.960000", "124557.947000", "124557.950000", "124557.953000", "124557.956000", "124557.959000", "124602.947000", "124602.950000", "124602.953000", "124602.956000", "124602.959000", "124607.947000", "124607.950000", "124607.953000", "124607.956000", "124607.959000", "124612.948000", "124612.951000", "124612.954000", "124612.957000", "124612.960000", "124617.947000", "124617.950000", "124617.953000", "124617.956000", "124617.959000", "124622.947000", "124622.950000", "124622.953000", "124622.956000", "124622.959000", "124627.948000", "124627.951000", "124627.954000", "124627.957000", "124627.960000", "124632.947000", "124632.950000", "124632.953000", "124632.956000", "124632.959000", "124637.947000", "124637.950000", "124637.953000", "124637.956000", "124637.959000", "124642.947000", "124642.950000", "124642.953000", "124642.956000", "124642.959000", "124647.948000", "124647.951000", "124647.954000", "124647.957000", "124647.960000", "124652.947000", "124652.950000", "124652.953000", "124652.956000", "124652.959000", "124657.947000", "124657.950000", "124657.953000", "124657.956000", "124657.959000", "124702.320000", "124702.323000", "124702.326000", "124702.329000", "124702.332000"],
      "InstanceCreationTime": ["124332.989000", "124332.992000", "124332.995000", "124332.998000", "124333.002000", "124333.005000", "124337.947000", "124337.955000", "124337.958000", "124337.961000", "124337.964000", "124337.967000", "124337.970000", "124342.947000", "124342.950000", "124342.953000", "124342.956000", "124342.959000", "124342.967000", "124342.970000", "124347.947000", "124347.950000", "124347.953000", "124347.956000", "124347.959000", "124347.962000", "124347.965000", "124347.968000", "124352.948000", "124352.951000", "124352.954000", "124352.957000", "124352.960000", "124352.963000", "124352.966000", "124357.947000", "124357.950000", "124357.953000", "124357.956000", "124357.959000", "124357.962000", "124357.964000", "124402.947000", "124402.950000", "124402.953000", "124402.963000", "124402.966000", "124402.969000", "124402.972000", "124407.948000", "124407.951000", "124407.954000", "124407.957000", "124407.960000", "124407.963000", "124407.966000", "124412.947000", "124412.950000", "124412.953000", "124412.956000", "124412.959000", "124412.962000", "124412.965000", "124417.947000", "124417.950000", "124417.953000", "124417.956000", "124417.959000", "124417.962000", "124417.965000", "124422.947000", "124422.950000", "124422.953000", "124422.956000", "124422.959000", "124422.962000", "124422.965000", "124427.948000", "124427.951000", "124427.954000", "124427.957000", "124427.960000", "124427.963000", "124427.981000", "124432.947000", "124432.950000", "124432.953000", "124432.956000", "124432.959000", "124432.962000", "124432.964000", "124437.947000", "124437.950000", "124437.953000", "124437.956000", "124437.959000", "124437.962000", "124437.965000", "124442.948000", "124442.951000", "124442.954000", "124442.957000", "124442.960000", "124442.963000", "124442.966000", "124447.947000", "124447.950000", "124447.953000", "124447.956000", "124447.967000", "124447.970000", "124447.973000", "124452.947000", "124452.950000", "124452.953000", "124452.956000", "124452.959000", "124452.962000", "124452.965000", "124457.947000", "124457.950000", "124457.953000", "124457.956000", "124457.959000", "124457.962000", "124457.965000", "124457.968000", "124502.949000", "124502.952000", "124502.955000", "124502.959000", "124502.962000", "124502.966000", "124507.947000", "124507.950000", "124507.953000", "124507.956000", "124507.959000", "124507.962000", "124507.965000", "124512.947000", "124512.950000", "124512.954000", "124512.957000", "124512.961000", "124512.963000", "124512.967000", "124517.948000", "124517.951000", "124517.954000", "124517.957000", "124517.960000", "124517.963000", "124517.972000", "124517.976000", "124522.947000", "124522.950000", "124522.953000", "124522.956000", "124522.959000", "124522.962000", "124522.965000", "124527.947000", "124527.950000", "124527.953000", "124527.956000", "124527.959000", "124527.962000", "124527.965000", "124532.947000", "124532.950000", "124532.953000", "124532.956000", "124532.959000", "124537.948000", "124537.951000", "124537.954000", "124537.957000", "124537.960000", "124542.947000", "124542.950000", "124542.953000", "124542.956000", "124542.959000", "124547.947000", "124547.950000", "124547.953000", "124547.956000", "124547.959000", "124552.948000", "124552.951000", "124552.954000", "124552.957000", "124552.960000", "124557.947000", "124557.950000", "124557.953000", "124557.956000", "124557.959000", "124602.947000", "124602.950000", "124602.953000", "124602.956000", "124602.959000", "124607.947000", "124607.950000", "124607.953000", "124607.956000", "124607.959000", "124612.948000", "124612.951000", "124612.954000", "124612.957000", "124612.960000", "124617.947000", "124617.950000", "124617.953000", "124617.956000", "124617.959000", "124622.947000", "124622.950000", "124622.953000", "124622.956000", "124622.959000", "124627.948000", "124627.951000", "124627.954000", "124627.957000", "124627.960000", "124632.947000", "124632.950000", "124632.953000", "124632.956000", "124632.959000", "124637.947000", "124637.950000", "124637.953000", "124637.956000", "124637.959000", "124642.947000", "124642.950000", "124642.953000", "124642.956000", "124642.959000", "124647.948000", "124647.951000", "124647.954000", "124647.957000", "124647.960000", "124652.947000", "124652.950000", "124652.953000", "124652.956000", "124652.959000", "124657.947000", "124657.950000", "124657.953000", "124657.956000", "124657.959000", "124702.320000", "124702.323000", "124702.326000", "124702.329000", "124702.332000"],
      "InstanceNumber": [1, 2, 3, 4, 5, 6, 7, 8, 9, 10, 11, 12, 13, 14, 15, 16, 17, 18, 19, 20, 21, 22, 23, 24, 25, 26, 27, 28, 29, 30, 31, 32, 33, 34, 35, 36, 37, 38, 39, 40, 41, 42, 43, 44, 45, 46, 47, 48, 49, 50, 51, 52, 53, 54, 55, 56, 57, 58, 59, 60, 61, 62, 63, 64, 65, 66, 67, 68, 69, 70, 71, 72, 73, 74, 75, 76, 77, 78, 79, 80, 81, 82, 83, 84, 85, 86, 87, 88, 89, 90, 91, 92, 93, 94, 95, 96, 97, 98, 99, 100, 101, 102, 103, 104, 105, 106, 107, 108, 109, 110, 111, 112, 113, 114, 115, 116, 117, 118, 119, 120, 121, 122, 123, 124, 125, 126, 127, 128, 129, 130, 131, 132, 133, 134, 135, 136, 137, 138, 139, 140, 141, 142, 143, 144, 145, 146, 147, 148, 149, 150, 151, 152, 153, 154, 155, 156, 157, 158, 159, 160, 161, 162, 163, 164, 165, 166, 167, 168, 169, 170, 171, 172, 173, 174, 175, 176, 177, 178, 179, 180, 181, 182, 183, 184, 185, 186, 187, 188, 189, 190, 191, 192, 193, 194, 195, 196, 197, 198, 199, 200, 201, 202, 203, 204, 205, 206, 207, 208, 209, 210, 211, 212, 213, 214, 215, 216, 217, 218, 219, 220, 221, 222, 223, 224, 225, 226, 227, 228, 229, 230, 231, 232, 233, 234, 235, 236, 237, 238, 239, 240, 241, 242, 243, 244, 245, 246, 247, 248, 249, 250, 251, 252, 253, 254, 255, 256, 257, 258, 259, 260, 261, 262, 263, 264],
      "LargestImagePixelValue": [33015, 31615, 31338, 30826, 31699, 30985, 30615, 30610, 30934, 30058, 30188, 30815, 30592, 30324, 30437, 30826, 30784, 30512, 31000, 30813, 30436, 30367, 30696, 30855, 30753, 30428, 30791, 30643, 30885, 30573, 30458, 30999, 31067, 30928, 31455, 31656, 31353, 31127, 31361, 31144, 31450, 31300, 31324, 31582, 31580, 31325, 31218, 31547, 31478, 30834, 31085, 31485, 31789, 30971, 31282, 31194, 30699, 30540, 30546, 30848, 30943, 30455, 30937, 31106, 30990, 31238, 31370, 31553, 31376, 31156, 30502, 30862, 31041, 30716, 30708, 31823, 31186, 30804, 30781, 31415, 31380, 31024, 31327, 31475, 31197, 31013, 31199, 31086, 31224, 31296, 31419, 30805, 31229, 31543, 31205, 30915, 31243, 31299, 31042, 31210, 31525, 31489, 30913, 31015, 31498, 31360, 31150, 31298, 30914, 31391, 31249, 31515, 31555, 31428, 31141, 31367, 31067, 31082, 30943, 31239, 31736, 30544, 30865, 31490, 31626, 31066, 30442, 30945, 31516, 31093, 30627, 30998, 31353, 31268, 31245, 30671, 31209, 31505, 31522, 31227, 31434, 31259, 31350, 31439, 31430, 31068, 30627, 31190, 31350, 31150, 30973, 31082, 31574, 31369, 30927, 30857, 31535, 31232, 31141, 31348, 31638, 31255, 31345, 30881, 30250, 31374, 31439, 31036, 31095, 30915, 30771, 30857, 31263, 31731, 30613, 30972, 31468, 31373, 30811, 30880, 31325, 30807, 30927, 30887, 31659, 30856, 31175, 31235, 31516, 31198, 31030, 30867, 31454, 31319, 31160, 31367, 31787, 30754, 31222, 31269, 31148, 31796, 30875, 30959, 31158, 31568, 31418, 30864, 31268, 31947, 30950, 31285, 30965, 31345, 30367, 30582, 31012, 31283, 30391, 30666, 30980, 30728, 30146, 30883, 31035, 30743, 31042, 31598, 31754, 30860, 30956, 31450, 30920, 31000, 30695, 31727, 30419, 30488, 30859, 31050, 30215, 30384, 31654, 30674, 30516, 30661, 31039, 30421, 30425, 31053, 30464, 30121, 30403, 30906, 30333, 30109, 30154, 30847, 30525, 30327, 30609, 30722, 30386, 30329],
      "WindowCenter": [9616.0, 9571.0, 9564.0, 9552.0, 9562.0, 9557.0, 9544.0, 9534.0, 9522.0, 9501.0, 9510.0, 9515.0, 9522.0, 9524.0, 9524.0, 9522.0, 9513.0, 9505.0, 9526.0, 9522.0, 9519.0, 9528.0, 9541.0, 9542.0, 9533.0, 9526.0, 9526.0, 9523.0, 9519.0, 9515.0, 9524.0, 9530.0, 9529.0, 9536.0, 9552.0, 9558.0, 9544.0, 9546.0, 9561.0, 9555.0, 9552.0, 9544.0, 9543.0, 9543.0, 9539.0, 9526.0, 9533.0, 9545.0, 9534.0, 9528.0, 9529.0, 9532.0, 9531.0, 9519.0, 9532.0, 9525.0, 9512.0, 9505.0, 9499.0, 9511.0, 9507.0, 9503.0, 9518.0, 9519.0, 9519.0, 9523.0, 9539.0, 9546.0, 9534.0, 9533.0, 9523.0, 9528.0, 9517.0, 9502.0, 9510.0, 9521.0, 9514.0, 9516.0, 9525.0, 9545.0, 9547.0, 9545.0, 9555.0, 9549.0, 9535.0, 9541.0, 9544.0, 9545.0, 9553.0, 9553.0, 9543.0, 9522.0, 9533.0, 9531.0, 9524.0, 9518.0, 9525.0, 9534.0, 9535.0, 9543.0, 9557.0, 9552.0, 9537.0, 9536.0, 9526.0, 9523.0, 9501.0, 9498.0, 9499.0, 9504.0, 9522.0, 9531.0, 9539.0, 9533.0, 9532.0, 9540.0, 9527.0, 9532.0, 9526.0, 9527.0, 9537.0, 9524.0, 9527.0, 9519.0, 9519.0, 9501.0, 9496.0, 9498.0, 9495.0, 9488.0, 9492.0, 9504.0, 9505.0, 9505.0, 9506.0, 9502.0, 9513.0, 9504.0, 9509.0, 9520.0, 9524.0, 9527.0, 9541.0, 9542.0, 9534.0, 9527.0, 9527.0, 9533.0, 9538.0, 9525.0, 9524.0, 9517.0, 9521.0, 9520.0, 9525.0, 9537.0, 9565.0, 9559.0, 9546.0, 9544.0, 9548.0, 9540.0, 9530.0, 9525.0, 9523.0, 9548.0, 9549.0, 9543.0, 9525.0, 9515.0, 9502.0, 9501.0, 9514.0, 9511.0, 9502.0, 9518.0, 9540.0, 9543.0, 9538.0, 9532.0, 9533.0, 9513.0, 9509.0, 9509.0, 9520.0, 9501.0, 9507.0, 9515.0, 9528.0, 9525.0, 9523.0, 9520.0, 9531.0, 9521.0, 9502.0, 9507.0, 9519.0, 9509.0, 9522.0, 9537.0, 9533.0, 9539.0, 9537.0, 9536.0, 9535.0, 9539.0, 9531.0, 9529.0, 9550.0, 9558.0, 9541.0, 9542.0, 9537.0, 9534.0, 9523.0, 9529.0, 9534.0, 9534.0, 9521.0, 9531.0, 9536.0, 9521.0, 9508.0, 9527.0, 9534.0, 9531.0, 9537.0, 9550.0, 9555.0, 9532.0, 9537.0, 9543.0, 9538.0, 9535.0, 9529.0, 9530.0, 9504.0, 9496.0, 9509.0, 9517.0, 9505.0, 9513.0, 9536.0, 9511.0, 9510.0, 9512.0, 9518.0, 9505.0, 9513.0, 9527.0, 9512.0, 9500.0, 9506.0, 9524.0, 9505.0, 9499.0, 9505.0, 9508.0, 9495.0, 9495.0, 9507.0, 9509.0, 9513.0, 9514.0],
      "WindowWidth": [20583.0, 20486.0, 20472.0, 20450.0, 20463.0, 20451.0, 20426.0, 20403.0, 20372.0, 20331.0, 20355.0, 20366.0, 20380.0, 20383.0, 20383.0, 20377.0, 20355.0, 20339.0, 20380.0, 20378.0, 20377.0, 20399.0, 20429.0, 20430.0, 20409.0, 20399.0, 20397.0, 20387.0, 20375.0, 20372.0, 20394.0, 20404.0, 20403.0, 20417.0, 20451.0, 20459.0, 20433.0, 20437.0, 20470.0, 20455.0, 20444.0, 20427.0, 20428.0, 20424.0, 20412.0, 20390.0, 20405.0, 20425.0, 20403.0, 20393.0, 20396.0, 20400.0, 20392.0, 20368.0, 20393.0, 20382.0, 20355.0, 20342.0, 20332.0, 20352.0, 20344.0, 20340.0, 20371.0, 20376.0, 20376.0, 20384.0, 20418.0, 20434.0, 20411.0, 20405.0, 20392.0, 20397.0, 20368.0, 20339.0, 20354.0, 20374.0, 20357.0, 20361.0, 20385.0, 20424.0, 20430.0, 20429.0, 20448.0, 20433.0, 20404.0, 20416.0, 20427.0, 20430.0, 20446.0, 20443.0, 20421.0, 20378.0, 20396.0, 20392.0, 20379.0, 20370.0, 20387.0, 20406.0, 20408.0, 20429.0, 20458.0, 20449.0, 20414.0, 20411.0, 20386.0, 20376.0, 20331.0, 20325.0, 20328.0, 20338.0, 20378.0, 20404.0, 20416.0, 20402.0, 20398.0, 20412.0, 20387.0, 20395.0, 20386.0, 20390.0, 20405.0, 20386.0, 20392.0, 20372.0, 20362.0, 20328.0, 20323.0, 20324.0, 20314.0, 20298.0, 20311.0, 20334.0, 20338.0, 20335.0, 20338.0, 20336.0, 20352.0, 20332.0, 20341.0, 20368.0, 20383.0, 20390.0, 20420.0, 20425.0, 20404.0, 20386.0, 20390.0, 20401.0, 20410.0, 20383.0, 20382.0, 20367.0, 20374.0, 20372.0, 20386.0, 20422.0, 20478.0, 20465.0, 20436.0, 20430.0, 20433.0, 20411.0, 20388.0, 20386.0, 20389.0, 20437.0, 20437.0, 20422.0, 20377.0, 20348.0, 20326.0, 20330.0, 20353.0, 20344.0, 20330.0, 20365.0, 20414.0, 20422.0, 20412.0, 20403.0, 20397.0, 20357.0, 20346.0, 20347.0, 20367.0, 20330.0, 20339.0, 20360.0, 20387.0, 20380.0, 20377.0, 20378.0, 20396.0, 20372.0, 20339.0, 20346.0, 20368.0, 20353.0, 20379.0, 20410.0, 20407.0, 20415.0, 20416.0, 20417.0, 20412.0, 20415.0, 20398.0, 20400.0, 20439.0, 20450.0, 20416.0, 20421.0, 20412.0, 20403.0, 20382.0, 20394.0, 20403.0, 20398.0, 20377.0, 20401.0, 20411.0, 20376.0, 20352.0, 20388.0, 20405.0, 20403.0, 20418.0, 20442.0, 20449.0, 20405.0, 20415.0, 20426.0, 20415.0, 20409.0, 20397.0, 20390.0, 20338.0, 20322.0, 20352.0, 20368.0, 20348.0, 20365.0, 20403.0, 20357.0, 20354.0, 20359.0, 20372.0, 20348.0, 20365.0, 20391.0, 20362.0, 20337.0, 20348.0, 20381.0, 20344.0, 20333.0, 20340.0, 20338.0, 20313.0, 20315.0, 20339.0, 20345.0, 20357.0, 20360.0]
    },
    "slices": {}
  }
}