{
  "AcquisitionMatrixPE": 104,
  "AcquisitionNumber": 1,
  "AcquisitionTime": "12:37:51.532500",
  "BandwidthPerPixelPhaseEncode": 16.578,
  "BaseResolution": 104,
  "BodyPartExamined": "BRAIN",
  "ConsistencyInfo": "N4_VE11C_LATEST_20160120",
  "ConversionSoftware": "dcm2niix",
  "ConversionSoftwareVersion": "v1.0.20190410  GCC6.3.0",
  "DerivedVendorReportedEchoSpacing": 0.000580009,
  "DeviceSerialNumber": "166018",
  "DwellTime": 2.1e-06,
  "EchoTime": 0.037,
  "EchoTrainLength": 104,
  "EffectiveEchoSpacing": 0.000580009,
  "FlipAngle": 68,
  "ImageComments": "Unaliased_MB6_PE3_LB",
  "ImageOrientationPatientDICOM": [0.999945, -4.20061e-05, 0.010477, 0.00226878, 0.977133, -0.212619],
  "ImageType": [
    "ORIGINAL",
    "PRIMARY",
    "M",
    "MB",
    "ND",
    "MOSAIC"
],
  "ImagingFrequency": 123.191,
  "InPlanePhaseEncodingDirectionDICOM": "COL",
  "InstitutionAddress": "Washington_Place_6_NYC_NYC_US_10003",
  "InstitutionName": "NYU_Center_for_Brain_Imaging",
  "InstitutionalDepartmentName": "Department",
  "MRAcquisitionType": "2D",
  "MagneticFieldStrength": 3,
  "Manufacturer": "Siemens",
  "ManufacturersModelName": "Prisma",
  "Modality": "MR",
  "MultibandAccelerationFactor": 6,
  "PartialFourier": 1,
  "PatientPosition": "HFS",
  "PercentPhaseFOV": 100,
  "PhaseEncodingDirection": "j",
  "PhaseEncodingSteps": 104,
  "PhaseResolution": 1,
  "PixelBandwidth": 2290,
  "ProcedureStepDescription": "Investigators_Winawer",
  "ProtocolName": "task-sfprescaled_mbepi_s6_2mm_66sl_PA_TR1.0-",
  "PulseSequenceDetails": "%CustomerSeq%_cmrr_mbep2d_bold",
  "ReceiveCoilActiveElements": "HC1-7",
  "ReceiveCoilName": "HeadNeck_64",
  "ReconMatrixPE": 104,
  "RepetitionTime": 1,
  "SAR": 0.0706464,
  "ScanOptions": "FS",
  "ScanningSequence": "EP",
  "SequenceName": "epfid2d1_104",
  "SequenceVariant": "SK_SS",
  "SeriesDescription": "task-sfprescaled_mbepi_s6_2mm_66sl_PA_TR1.0-",
  "SeriesNumber": 22,
  "ShimSetting": [283, -12618, -8461, 445, 86, -59, -129, -57],
  "SliceThickness": 2,
  "SliceTiming": [0, 0.535, 0.09, 0.625, 0.18, 0.7125, 0.2675, 0.8025, 0.3575, 0.8925, 0.445, 0, 0.535, 0.09, 0.625, 0.18, 0.7125, 0.2675, 0.8025, 0.3575, 0.8925, 0.445, 0, 0.535, 0.09, 0.625, 0.18, 0.7125, 0.2675, 0.8025, 0.3575, 0.8925, 0.445, 0, 0.535, 0.09, 0.625, 0.18, 0.7125, 0.2675, 0.8025, 0.3575, 0.8925, 0.445, 0, 0.535, 0.09, 0.625, 0.18, 0.7125, 0.2675, 0.8025, 0.3575, 0.8925, 0.445, 0, 0.535, 0.09, 0.625, 0.18, 0.7125, 0.2675, 0.8025, 0.3575, 0.8925, 0.445],
  "SoftwareVersions": "syngo_MR_E11",
  "SpacingBetweenSlices": 2,
  "StationName": "AWP166018",
  "TaskName": "sfprescaled",
  "TotalReadoutTime": 0.0597409,
  "TxRefAmp": 215.643,
  "WipMemBlock": "34fe9896-9353-452e-b995-7f6b7128c97a||Sequence: R016 ve11c/master r/8780670; Nov 27 2017 15:05:12 by eja",
  "dcmmeta_affine": [
    [-1.9998902082443237, 0.004537566099315882, 0.02045702561736107, 110.97503662109375],
    [8.4012295701541e-05, 1.9542652368545532, -0.42526179552078247, -81.9362564086914],
    [0.020954053848981857, 0.42523759603500366, 1.954158067703247, -73.46516418457031],
    [0.0, 0.0, 0.0, 1.0]
],
  "dcmmeta_reorient_transform": [
    [0.0, -1.0, 0.0, 103.0],
    [1.0, 0.0, 0.0, 0.0],
    [0.0, 0.0, 1.0, 0.0],
    [0.0, 0.0, 0.0, 1.0]
],
  "dcmmeta_shape": [104, 104, 66, 264],
  "dcmmeta_slice_dim": 2,
  "dcmmeta_version": 0.6,
  "global": {
    "const": {
      "AccessionNumber": "jtu6jhmb",
  "NumberOfVolumes": 264,
      "AcquisitionMatrix": [104, 0, 0, 104],
      "AngioFlag": "N",
      "BitsAllocated": 16,
      "BitsStored": 16,
      "BodyPartExamined": "BRAIN",
      "Columns": 936,
      "EchoNumbers": 1,
      "EchoTime": 37.0,
      "EchoTrainLength": 104,
      "FlipAngle": 68.0,
      "HighBit": 15,
      "ImageOrientationPatient": [0.99994511356325, -4.20061489e-05, 0.01047702708094, 0.00226878296554, 0.97713259133393, -0.212618794035],
      "ImagePositionPatient": [-945.28436869193, -932.29242349066, 138.51625926815],
      "ImageType": [
        "ORIGINAL",
        "PRIMARY",
        "M",
        "MB",
        "ND",
        "MOSAIC"
],
      "ImagedNucleus": "1H",
      "ImagingFrequency": 123.191219,
      "InPlanePhaseEncodingDirection": "COL",
      "MRAcquisitionType": "2D",
      "MagneticFieldStrength": 3.0,
      "Manufacturer": "SIEMENS",
      "ManufacturerModelName": "Prisma",
      "Modality": "MR",
      "NumberOfAverages": 1.0,
      "NumberOfPhaseEncodingSteps": 104,
      "PercentPhaseFieldOfView": 100.0,
      "PercentSampling": 100.0,
      "PerformedProcedureStepStartTime": "115204.018000",
      "PhotometricInterpretation": "MONOCHROME2",
      "PixelBandwidth": 2290.0,
      "PixelRepresentation": 0,
      "PixelSpacing": [2.0, 2.0],
      "ProtocolName": "task-sfprescaled_mbepi_s6_2mm_66sl_PA_TR1.0-",
      "RepetitionTime": 1000.0,
      "Rows": 936,
      "SAR": 0.07064645224032,
      "SamplesPerPixel": 1,
      "ScanOptions": "FS",
      "ScanningSequence": "EP",
      "SequenceName": "epfid2d1_104",
      "SequenceVariant": [
        "SK",
        "SS"
],
      "SeriesDescription": "task-sfprescaled_mbepi_s6_2mm_66sl_PA_TR1.0-",
      "SeriesNumber": 22,
      "SeriesTime": "123846.348000",
      "SliceLocation": -53.223982195688,
      "SliceThickness": 2.0,
      "SmallestImagePixelValue": 0,
      "SoftwareVersions": "syngo MR E11",
      "SpacingBetweenSlices": 1.9999999725963,
      "SpecificCharacterSet": "ISO_IR 100",
      "StudyID": "1",
      "StudyTime": "115203.950000",
      "TransmitCoilName": "Body",
      "VariableFlipAngleFlag": "N",
      "WindowCenterWidthExplanation": "Algo1",
      "dBdt": 0.0},
    "slices": {}
  },
  "time": {
    "samples": {
      "AcquisitionNumber": [1, 2, 3, 4, 5, 6, 7, 8, 9, 10, 11, 12, 13, 14, 15, 16, 17, 18, 19, 20, 21, 22, 23, 24, 25, 26, 27, 28, 29, 30, 31, 32, 33, 34, 35, 36, 37, 38, 39, 40, 41, 42, 43, 44, 45, 46, 47, 48, 49, 50, 51, 52, 53, 54, 55, 56, 57, 58, 59, 60, 61, 62, 63, 64, 65, 66, 67, 68, 69, 70, 71, 72, 73, 74, 75, 76, 77, 78, 79, 80, 81, 82, 83, 84, 85, 86, 87, 88, 89, 90, 91, 92, 93, 94, 95, 96, 97, 98, 99, 100, 101, 102, 103, 104, 105, 106, 107, 108, 109, 110, 111, 112, 113, 114, 115, 116, 117, 118, 119, 120, 121, 122, 123, 124, 125, 126, 127, 128, 129, 130, 131, 132, 133, 134, 135, 136, 137, 138, 139, 140, 141, 142, 143, 144, 145, 146, 147, 148, 149, 150, 151, 152, 153, 154, 155, 156, 157, 158, 159, 160, 161, 162, 163, 164, 165, 166, 167, 168, 169, 170, 171, 172, 173, 174, 175, 176, 177, 178, 179, 180, 181, 182, 183, 184, 185, 186, 187, 188, 189, 190, 191, 192, 193, 194, 195, 196, 197, 198, 199, 200, 201, 202, 203, 204, 205, 206, 207, 208, 209, 210, 211, 212, 213, 214, 215, 216, 217, 218, 219, 220, 221, 222, 223, 224, 225, 226, 227, 228, 229, 230, 231, 232, 233, 234, 235, 236, 237, 238, 239, 240, 241, 242, 243, 244, 245, 246, 247, 248, 249, 250, 251, 252, 253, 254, 255, 256, 257, 258, 259, 260, 261, 262, 263, 264],
      "AcquisitionTime": ["123751.532500", "123752.532500", "123753.532500", "123754.532500", "123755.532500", "123756.532500", "123757.532500", "123758.532500", "123759.532500", "123800.532500", "123801.532500", "123802.532500", "123803.532500", "123804.532500", "123805.532500", "123806.532500", "123807.532500", "123808.532500", "123809.532500", "123810.532500", "123811.532500", "123812.532500", "123813.532500", "123814.532500", "123815.532500", "123816.532500", "123817.532500", "123818.532500", "123819.532500", "123820.532500", "123821.532500", "123822.532500", "123823.532500", "123824.532500", "123825.532500", "123826.532500", "123827.532500", "123828.532500", "123829.532500", "123830.532500", "123831.532500", "123832.532500", "123833.532500", "123834.532500", "123835.532500", "123836.532500", "123837.532500", "123838.532500", "123839.532500", "123840.532500", "123841.532500", "123842.532500", "123843.532500", "123844.532500", "123845.532500", "123846.532500", "123847.532500", "123848.532500", "123849.532500", "123850.532500", "123851.532500", "123852.532500", "123853.532500", "123854.532500", "123855.532500", "123856.532500", "123857.532500", "123858.532500", "123859.532500", "123900.532500", "123901.532500", "123902.532500", "123903.532500", "123904.532500", "123905.532500", "123906.532500", "123907.532500", "123908.532500", "123909.532500", "123910.532500", "123911.532500", "123912.532500", "123913.532500", "123914.532500", "123915.532500", "123916.532500", "123917.532500", "123918.532500", "123919.532500", "123920.532500", "123921.532500", "123922.532500", "123923.532500", "123924.532500", "123925.532500", "123926.532500", "123927.532500", "123928.532500", "123929.532500", "123930.532500", "123931.532500", "123932.532500", "123933.532500", "123934.532500", "123935.532500", "123936.532500", "123937.532500", "123938.532500", "123939.532500", "123940.532500", "123941.532500", "123942.532500", "123943.532500", "123944.532500", "123945.532500", "123946.532500", "123947.532500", "123948.532500", "123949.532500", "123950.532500", "123951.532500", "123952.532500", "123953.532500", "123954.532500", "123955.532500", "123956.532500", "123957.532500", "123958.532500", "123959.532500", "124000.532500", "124001.532500", "124002.532500", "124003.532500", "124004.532500", "124005.532500", "124006.532500", "124007.532500", "124008.532500", "124009.532500", "124010.532500", "124011.532500", "124012.532500", "124013.532500", "124014.532500", "124015.532500", "124016.532500", "124017.532500", "124018.532500", "124019.532500", "124020.532500", "124021.532500", "124022.532500", "124023.532500", "124024.532500", "124025.532500", "124026.532500", "124027.532500", "124028.532500", "124029.532500", "124030.532500", "124031.532500", "124032.532500", "124033.532500", "124034.532500", "124035.532500", "124036.532500", "124037.532500", "124038.532500", "124039.532500", "124040.532500", "124041.532500", "124042.532500", "124043.532500", "124044.532500", "124045.532500", "124046.532500", "124047.532500", "124048.532500", "124049.532500", "124050.532500", "124051.532500", "124052.532500", "124053.532500", "124054.532500", "124055.532500", "124056.532500", "124057.532500", "124058.532500", "124059.532500", "124100.532500", "124101.532500", "124102.532500", "124103.532500", "124104.532500", "124105.532500", "124106.532500", "124107.532500", "124108.532500", "124109.532500", "124110.532500", "124111.532500", "124112.532500", "124113.532500", "124114.532500", "124115.532500", "124116.532500", "124117.532500", "124118.532500", "124119.532500", "124120.532500", "124121.532500", "124122.532500", "124123.532500", "124124.532500", "124125.532500", "124126.532500", "124127.532500", "124128.532500", "124129.532500", "124130.532500", "124131.532500", "124132.532500", "124133.532500", "124134.532500", "124135.532500", "124136.532500", "124137.532500", "124138.532500", "124139.532500", "124140.532500", "124141.532500", "124142.532500", "124143.532500", "124144.532500", "124145.532500", "124146.532500", "124147.532500", "124148.532500", "124149.532500", "124150.532500", "124151.532500", "124152.532500", "124153.532500", "124154.532500", "124155.532500", "124156.532500", "124157.532500", "124158.532500", "124159.532500", "124200.532500", "124201.532500", "124202.532500", "124203.532500", "124204.532500", "124205.532500", "124206.532500", "124207.532500", "124208.532500", "124209.532500", "124210.532500", "124211.532500", "124212.532500", "124213.532500", "124214.532500"],
      "ContentTime": ["123846.350000", "123846.354000", "123846.357000", "123846.360000", "123846.363000", "123846.372000", "123846.375000", "123851.348000", "123851.351000", "123851.355000", "123851.358000", "123851.361000", "123851.364000", "123851.366000", "123856.349000", "123856.352000", "123856.355000", "123856.358000", "123856.364000", "123856.367000", "123856.370000", "123901.349000", "123901.352000", "123901.355000", "123901.358000", "123901.383000", "123901.386000", "123901.394000", "123906.349000", "123906.352000", "123906.355000", "123906.358000", "123906.361000", "123906.364000", "123906.367000", "123906.369000", "123911.349000", "123911.352000", "123911.355000", "123911.358000", "123911.361000", "123911.363000", "123911.366000", "123916.349000", "123916.352000", "123916.355000", "123916.358000", "123916.361000", "123916.363000", "123916.366000", "123921.349000", "123921.352000", "123921.355000", "123921.358000", "123921.361000", "123921.367000", "123921.370000", "123926.349000", "123926.352000", "123926.355000", "123926.358000", "123926.361000", "123926.364000", "123926.367000", "123931.349000", "123931.352000", "123931.355000", "123931.358000", "123931.361000", "123931.364000", "123931.367000", "123936.349000", "123936.352000", "123936.355000", "123936.358000", "123936.361000", "123936.364000", "123936.367000", "123941.349000", "123941.352000", "123941.355000", "123941.358000", "123941.361000", "123941.364000", "123941.367000", "123946.349000", "123946.352000", "123946.355000", "123946.358000", "123946.361000", "123946.364000", "123946.367000", "123951.349000", "123951.352000", "123951.355000", "123951.358000", "123951.361000", "123951.364000", "123951.367000", "123956.349000", "123956.352000", "123956.355000", "123956.358000", "123956.361000", "123956.364000", "123956.367000", "124001.349000", "124001.352000", "124001.355000", "124001.358000", "124001.361000", "124001.364000", "124001.367000", "124006.349000", "124006.352000", "124006.355000", "124006.358000", "124006.361000", "124006.364000", "124006.366000", "124011.349000", "124011.352000", "124011.355000", "124011.358000", "124011.361000", "124011.364000", "124011.367000", "124016.349000", "124016.352000", "124016.355000", "124016.358000", "124016.361000", "124016.364000", "124016.367000", "124021.349000", "124021.352000", "124021.355000", "124021.358000", "124021.361000", "124021.364000", "124021.367000", "124026.349000", "124026.352000", "124026.355000", "124026.358000", "124026.361000", "124026.364000", "124026.367000", "124031.349000", "124031.352000", "124031.355000", "124031.358000", "124031.361000", "124031.364000", "124031.367000", "124031.370000", "124036.349000", "124036.352000", "124036.355000", "124036.358000", "124036.361000", "124036.364000", "124036.367000", "124041.349000", "124041.352000", "124041.355000", "124041.358000", "124041.361000", "124041.374000", "124046.349000", "124046.352000", "124046.355000", "124046.358000", "124046.361000", "124051.349000", "124051.352000", "124051.355000", "124051.358000", "124051.361000", "124056.349000", "124056.363000", "124056.366000", "124056.369000", "124056.372000", "124101.349000", "124101.352000", "124101.355000", "124101.358000", "124101.361000", "124106.349000", "124106.352000", "124106.355000", "124106.358000", "124106.361000", "124111.349000", "124111.352000", "124111.355000", "124111.358000", "124111.361000", "124116.349000", "124116.352000", "124116.355000", "124116.358000", "124116.361000", "124121.349000", "124121.352000", "124121.355000", "124121.358000", "124121.361000", "124126.349000", "124126.352000", "124126.355000", "124126.358000", "124126.361000", "124131.349000", "124131.352000", "124131.355000", "124131.358000", "124131.361000", "124136.349000", "124136.352000", "124136.355000", "124136.358000", "124136.361000", "124141.349000", "124141.352000", "124141.355000", "124141.358000", "124141.361000", "124146.349000", "124146.352000", "124146.355000", "124146.358000", "124146.361000", "124151.349000", "124151.352000", "124151.355000", "124151.358000", "124151.361000", "124156.349000", "124156.352000", "124156.355000", "124156.358000", "124156.361000", "124201.349000", "124201.352000", "124201.355000", "124201.358000", "124201.361000", "124206.349000", "124206.352000", "124206.355000", "124206.358000", "124206.361000", "124211.349000", "124211.352000", "124211.355000", "124211.358000", "124211.361000", "124215.715000", "124215.718000", "124215.721000", "124215.724000", "124215.727000"],
      "InstanceCreationTime": ["123846.350000", "123846.354000", "123846.357000", "123846.360000", "123846.363000", "123846.372000", "123846.375000", "123851.348000", "123851.351000", "123851.355000", "123851.358000", "123851.361000", "123851.364000", "123851.366000", "123856.349000", "123856.352000", "123856.355000", "123856.358000", "123856.364000", "123856.367000", "123856.370000", "123901.349000", "123901.352000", "123901.355000", "123901.358000", "123901.383000", "123901.386000", "123901.394000", "123906.349000", "123906.352000", "123906.355000", "123906.358000", "123906.361000", "123906.364000", "123906.367000", "123906.369000", "123911.349000", "123911.352000", "123911.355000", "123911.358000", "123911.361000", "123911.363000", "123911.366000", "123916.349000", "123916.352000", "123916.355000", "123916.358000", "123916.361000", "123916.363000", "123916.366000", "123921.349000", "123921.352000", "123921.355000", "123921.358000", "123921.361000", "123921.367000", "123921.370000", "123926.349000", "123926.352000", "123926.355000", "123926.358000", "123926.361000", "123926.364000", "123926.367000", "123931.349000", "123931.352000", "123931.355000", "123931.358000", "123931.361000", "123931.364000", "123931.367000", "123936.349000", "123936.352000", "123936.355000", "123936.358000", "123936.361000", "123936.364000", "123936.367000", "123941.349000", "123941.352000", "123941.355000", "123941.358000", "123941.361000", "123941.364000", "123941.367000", "123946.349000", "123946.352000", "123946.355000", "123946.358000", "123946.361000", "123946.364000", "123946.367000", "123951.349000", "123951.352000", "123951.355000", "123951.358000", "123951.361000", "123951.364000", "123951.367000", "123956.349000", "123956.352000", "123956.355000", "123956.358000", "123956.361000", "123956.364000", "123956.367000", "124001.349000", "124001.352000", "124001.355000", "124001.358000", "124001.361000", "124001.364000", "124001.367000", "124006.349000", "124006.352000", "124006.355000", "124006.358000", "124006.361000", "124006.364000", "124006.366000", "124011.349000", "124011.352000", "124011.355000", "124011.358000", "124011.361000", "124011.364000", "124011.367000", "124016.349000", "124016.352000", "124016.355000", "124016.358000", "124016.361000", "124016.364000", "124016.367000", "124021.349000", "124021.352000", "124021.355000", "124021.358000", "124021.361000", "124021.364000", "124021.367000", "124026.349000", "124026.352000", "124026.355000", "124026.358000", "124026.361000", "124026.364000", "124026.367000", "124031.349000", "124031.352000", "124031.355000", "124031.358000", "124031.361000", "124031.364000", "124031.367000", "124031.370000", "124036.349000", "124036.352000", "124036.355000", "124036.358000", "124036.361000", "124036.364000", "124036.367000", "124041.349000", "124041.352000", "124041.355000", "124041.358000", "124041.361000", "124041.374000", "124046.349000", "124046.352000", "124046.355000", "124046.358000", "124046.361000", "124051.349000", "124051.352000", "124051.355000", "124051.358000", "124051.361000", "124056.349000", "124056.363000", "124056.366000", "124056.369000", "124056.372000", "124101.349000", "124101.352000", "124101.355000", "124101.358000", "124101.361000", "124106.349000", "124106.352000", "124106.355000", "124106.358000", "124106.361000", "124111.349000", "124111.352000", "124111.355000", "124111.358000", "124111.361000", "124116.349000", "124116.352000", "124116.355000", "124116.358000", "124116.361000", "124121.349000", "124121.352000", "124121.355000", "124121.358000", "124121.361000", "124126.349000", "124126.352000", "124126.355000", "124126.358000", "124126.361000", "124131.349000", "124131.352000", "124131.355000", "124131.358000", "124131.361000", "124136.349000", "124136.352000", "124136.355000", "124136.358000", "124136.361000", "124141.349000", "124141.352000", "124141.355000", "124141.358000", "124141.361000", "124146.349000", "124146.352000", "124146.355000", "124146.358000", "124146.361000", "124151.349000", "124151.352000", "124151.355000", "124151.358000", "124151.361000", "124156.349000", "124156.352000", "124156.355000", "124156.358000", "124156.361000", "124201.349000", "124201.352000", "124201.355000", "124201.358000", "124201.361000", "124206.349000", "124206.352000", "124206.355000", "124206.358000", "124206.361000", "124211.349000", "124211.352000", "124211.355000", "124211.358000", "124211.361000", "124215.715000", "124215.718000", "124215.721000", "124215.724000", "124215.727000"],
      "InstanceNumber": [1, 2, 3, 4, 5, 6, 7, 8, 9, 10, 11, 12, 13, 14, 15, 16, 17, 18, 19, 20, 21, 22, 23, 24, 25, 26, 27, 28, 29, 30, 31, 32, 33, 34, 35, 36, 37, 38, 39, 40, 41, 42, 43, 44, 45, 46, 47, 48, 49, 50, 51, 52, 53, 54, 55, 56, 57, 58, 59, 60, 61, 62, 63, 64, 65, 66, 67, 68, 69, 70, 71, 72, 73, 74, 75, 76, 77, 78, 79, 80, 81, 82, 83, 84, 85, 86, 87, 88, 89, 90, 91, 92, 93, 94, 95, 96, 97, 98, 99, 100, 101, 102, 103, 104, 105, 106, 107, 108, 109, 110, 111, 112, 113, 114, 115, 116, 117, 118, 119, 120, 121, 122, 123, 124, 125, 126, 127, 128, 129, 130, 131, 132, 133, 134, 135, 136, 137, 138, 139, 140, 141, 142, 143, 144, 145, 146, 147, 148, 149, 150, 151, 152, 153, 154, 155, 156, 157, 158, 159, 160, 161, 162, 163, 164, 165, 166, 167, 168, 169, 170, 171, 172, 173, 174, 175, 176, 177, 178, 179, 180, 181, 182, 183, 184, 185, 186, 187, 188, 189, 190, 191, 192, 193, 194, 195, 196, 197, 198, 199, 200, 201, 202, 203, 204, 205, 206, 207, 208, 209, 210, 211, 212, 213, 214, 215, 216, 217, 218, 219, 220, 221, 222, 223, 224, 225, 226, 227, 228, 229, 230, 231, 232, 233, 234, 235, 236, 237, 238, 239, 240, 241, 242, 243, 244, 245, 246, 247, 248, 249, 250, 251, 252, 253, 254, 255, 256, 257, 258, 259, 260, 261, 262, 263, 264],
      "LargestImagePixelValue": [31659, 30754, 30464, 30718, 30531, 30228, 30224, 30214, 29807, 30029, 30102, 30314, 29998, 29950, 30212, 30475, 29804, 29971, 30455, 29925, 29814, 30300, 30103, 30182, 29929, 30207, 30593, 30099, 30168, 29892, 30364, 30044, 29700, 30084, 30347, 30753, 29717, 29930, 30169, 30082, 29984, 30437, 30682, 29877, 29718, 29871, 30004, 29575, 29551, 30109, 29631, 29494, 30060, 30362, 29954, 29859, 30011, 30630, 29670, 29999, 29684, 29728, 29723, 29714, 30364, 30412, 30060, 30479, 30300, 30206, 29637, 30417, 30030, 30300, 30600, 30117, 29841, 30099, 29913, 30032, 29958, 30189, 30438, 30639, 29811, 29997, 30645, 30184, 30117, 30045, 30000, 29878, 29884, 30048, 30312, 29986, 30365, 30098, 30501, 30318, 30430, 29889, 30436, 30252, 29890, 30286, 30800, 29774, 30342, 30626, 30450, 29887, 30111, 30354, 29862, 29994, 29932, 30556, 30191, 30025, 29871, 30255, 29623, 29782, 30076, 30147, 30118, 30037, 30576, 30759, 29701, 29812, 30464, 30174, 30081, 30191, 30777, 30412, 30181, 30362, 30504, 30175, 30403, 30447, 30889, 30372, 30237, 30490, 30315, 30147, 30400, 30540, 30499, 30096, 30263, 30207, 30279, 30205, 30353, 30503, 30103, 30099, 30759, 30703, 30291, 30257, 30745, 30326, 30023, 30050, 30334, 30057, 30031, 29976, 30714, 30234, 30193, 30314, 30334, 30332, 30197, 30436, 30085, 30186, 30136, 31199, 30423, 30198, 30249, 30712, 30483, 29781, 30134, 30470, 29786, 30035, 30110, 30442, 30156, 30419, 30426, 30314, 30338, 29938, 30380, 30168, 30058, 30304, 30772, 29964, 30047, 30348, 30790, 30178, 30637, 30585, 30506, 30269, 30820, 30676, 30550, 30183, 30607, 30419, 29958, 30367, 30511, 30275, 29947, 30339, 30418, 30270, 30027, 30635, 30848, 30250, 30447, 30703, 30496, 30229, 30538, 30684, 30926, 30669, 30700, 30726, 30647, 30944, 30492, 31009, 30673, 30311, 30991, 31148, 31091, 30689, 30468, 30584, 30612, 30554, 30940, 31145, 30172, 30172],
      "WindowCenter": [9578.0, 9552.0, 9548.0, 9559.0, 9563.0, 9559.0, 9548.0, 9539.0, 9523.0, 9523.0, 9522.0, 9519.0, 9512.0, 9520.0, 9516.0, 9512.0, 9505.0, 9510.0, 9516.0, 9518.0, 9521.0, 9536.0, 9531.0, 9523.0, 9522.0, 9523.0, 9534.0, 9521.0, 9523.0, 9523.0, 9526.0, 9519.0, 9513.0, 9525.0, 9527.0, 9526.0, 9515.0, 9529.0, 9528.0, 9522.0, 9520.0, 9523.0, 9522.0, 9499.0, 9505.0, 9520.0, 9520.0, 9515.0, 9519.0, 9521.0, 9508.0, 9502.0, 9518.0, 9512.0, 9511.0, 9513.0, 9529.0, 9541.0, 9522.0, 9528.0, 9514.0, 9507.0, 9505.0, 9507.0, 9524.0, 9516.0, 9509.0, 9510.0, 9506.0, 9491.0, 9483.0, 9487.0, 9482.0, 9487.0, 9502.0, 9505.0, 9503.0, 9517.0, 9511.0, 9510.0, 9509.0, 9509.0, 9517.0, 9530.0, 9512.0, 9519.0, 9522.0, 9508.0, 9505.0, 9492.0, 9492.0, 9483.0, 9485.0, 9500.0, 9513.0, 9518.0, 9533.0, 9536.0, 9535.0, 9531.0, 9534.0, 9524.0, 9537.0, 9527.0, 9514.0, 9517.0, 9522.0, 9503.0, 9509.0, 9521.0, 9517.0, 9514.0, 9520.0, 9517.0, 9498.0, 9503.0, 9510.0, 9517.0, 9511.0, 9509.0, 9512.0, 9522.0, 9504.0, 9518.0, 9526.0, 9528.0, 9528.0, 9531.0, 9542.0, 9533.0, 9515.0, 9516.0, 9520.0, 9513.0, 9513.0, 9522.0, 9540.0, 9533.0, 9535.0, 9541.0, 9532.0, 9512.0, 9517.0, 9518.0, 9527.0, 9522.0, 9517.0, 9524.0, 9523.0, 9517.0, 9524.0, 9516.0, 9507.0, 9501.0, 9512.0, 9500.0, 9506.0, 9509.0, 9506.0, 9506.0, 9507.0, 9517.0, 9544.0, 9541.0, 9534.0, 9547.0, 9540.0, 9526.0, 9517.0, 9510.0, 9508.0, 9499.0, 9499.0, 9510.0, 9528.0, 9517.0, 9519.0, 9533.0, 9527.0, 9523.0, 9509.0, 9506.0, 9497.0, 9500.0, 9499.0, 9518.0, 9498.0, 9492.0, 9504.0, 9502.0, 9496.0, 9484.0, 9483.0, 9487.0, 9468.0, 9481.0, 9495.0, 9495.0, 9491.0, 9512.0, 9513.0, 9505.0, 9497.0, 9491.0, 9488.0, 9488.0, 9488.0, 9504.0, 9512.0, 9501.0, 9500.0, 9506.0, 9517.0, 9500.0, 9519.0, 9520.0, 9514.0, 9516.0, 9531.0, 9531.0, 9525.0, 9519.0, 9538.0, 9524.0, 9518.0, 9524.0, 9524.0, 9515.0, 9508.0, 9515.0, 9508.0, 9506.0, 9508.0, 9528.0, 9536.0, 9530.0, 9533.0, 9539.0, 9523.0, 9514.0, 9519.0, 9521.0, 9527.0, 9520.0, 9522.0, 9527.0, 9520.0, 9515.0, 9504.0, 9516.0, 9511.0, 9513.0, 9525.0, 9526.0, 9522.0, 9518.0, 9513.0, 9518.0, 9516.0, 9505.0, 9517.0, 9523.0, 9500.0, 9513.0],
      "WindowWidth": [20494.0, 20447.0, 20438.0, 20458.0, 20469.0, 20463.0, 20437.0, 20412.0, 20381.0, 20382.0, 20380.0, 20368.0, 20354.0, 20375.0, 20368.0, 20355.0, 20340.0, 20351.0, 20361.0, 20369.0, 20385.0, 20417.0, 20409.0, 20391.0, 20390.0, 20391.0, 20410.0, 20386.0, 20392.0, 20391.0, 20390.0, 20375.0, 20367.0, 20388.0, 20393.0, 20389.0, 20375.0, 20402.0, 20399.0, 20383.0, 20377.0, 20379.0, 20373.0, 20336.0, 20349.0, 20381.0, 20379.0, 20374.0, 20382.0, 20380.0, 20355.0, 20347.0, 20376.0, 20365.0, 20364.0, 20373.0, 20408.0, 20427.0, 20391.0, 20401.0, 20374.0, 20358.0, 20354.0, 20359.0, 20390.0, 20371.0, 20359.0, 20358.0, 20345.0, 20314.0, 20296.0, 20301.0, 20294.0, 20306.0, 20336.0, 20349.0, 20350.0, 20376.0, 20365.0, 20360.0, 20354.0, 20358.0, 20376.0, 20401.0, 20369.0, 20379.0, 20381.0, 20348.0, 20340.0, 20313.0, 20313.0, 20297.0, 20303.0, 20336.0, 20364.0, 20378.0, 20412.0, 20420.0, 20412.0, 20402.0, 20407.0, 20393.0, 20418.0, 20393.0, 20368.0, 20373.0, 20377.0, 20343.0, 20352.0, 20376.0, 20373.0, 20370.0, 20380.0, 20371.0, 20336.0, 20345.0, 20359.0, 20372.0, 20360.0, 20359.0, 20365.0, 20381.0, 20348.0, 20377.0, 20396.0, 20400.0, 20401.0, 20409.0, 20425.0, 20405.0, 20374.0, 20380.0, 20385.0, 20370.0, 20372.0, 20394.0, 20427.0, 20411.0, 20417.0, 20426.0, 20402.0, 20364.0, 20373.0, 20376.0, 20391.0, 20381.0, 20374.0, 20388.0, 20386.0, 20377.0, 20389.0, 20372.0, 20350.0, 20340.0, 20361.0, 20337.0, 20347.0, 20355.0, 20349.0, 20351.0, 20351.0, 20376.0, 20434.0, 20428.0, 20417.0, 20438.0, 20421.0, 20392.0, 20372.0, 20360.0, 20353.0, 20333.0, 20335.0, 20362.0, 20397.0, 20380.0, 20386.0, 20415.0, 20404.0, 20389.0, 20360.0, 20348.0, 20327.0, 20337.0, 20341.0, 20371.0, 20335.0, 20326.0, 20345.0, 20335.0, 20321.0, 20301.0, 20296.0, 20299.0, 20263.0, 20291.0, 20319.0, 20316.0, 20313.0, 20359.0, 20362.0, 20343.0, 20322.0, 20312.0, 20303.0, 20303.0, 20307.0, 20346.0, 20364.0, 20345.0, 20345.0, 20356.0, 20374.0, 20343.0, 20380.0, 20383.0, 20370.0, 20377.0, 20407.0, 20407.0, 20396.0, 20386.0, 20418.0, 20390.0, 20380.0, 20393.0, 20391.0, 20371.0, 20359.0, 20370.0, 20357.0, 20352.0, 20358.0, 20398.0, 20415.0, 20407.0, 20416.0, 20422.0, 20388.0, 20367.0, 20374.0, 20379.0, 20389.0, 20376.0, 20382.0, 20391.0, 20374.0, 20362.0, 20345.0, 20366.0, 20357.0, 20365.0, 20388.0, 20386.0, 20372.0, 20367.0, 20361.0, 20369.0, 20363.0, 20347.0, 20369.0, 20378.0, 20337.0, 20361.0]
    },
    "slices": {}
  }
}