{
  "AcquisitionMatrixPE": 104,
  "AcquisitionNumber": 1,
  "AcquisitionTime": "12:57:4.582500",
  "BandwidthPerPixelPhaseEncode": 16.578,
  "BaseResolution": 104,
  "BodyPartExamined": "BRAIN",
  "ConsistencyInfo": "N4_VE11C_LATEST_20160120",
  "ConversionSoftware": "dcm2niix",
  "ConversionSoftwareVersion": "v1.0.20190410  GCC6.3.0",
  "DerivedVendorReportedEchoSpacing": 0.000580009,
  "DeviceSerialNumber": "166018",
  "DwellTime": 2.1e-06,
  "EchoTime": 0.037,
  "EchoTrainLength": 104,
  "EffectiveEchoSpacing": 0.000580009,
  "FlipAngle": 68,
  "ImageComments": "Unaliased_MB6_PE3_LB",
  "ImageOrientationPatientDICOM": [0.999945, -4.20061e-05, 0.010477, 0.00226878, 0.977133, -0.212619],
  "ImageType": [
    "ORIGINAL",
    "PRIMARY",
    "M",
    "MB",
    "ND",
    "MOSAIC"
],
  "ImagingFrequency": 123.191,
  "InPlanePhaseEncodingDirectionDICOM": "COL",
  "InstitutionAddress": "Washington_Place_6_NYC_NYC_US_10003",
  "InstitutionName": "NYU_Center_for_Brain_Imaging",
  "InstitutionalDepartmentName": "Department",
  "MRAcquisitionType": "2D",
  "MagneticFieldStrength": 3,
  "Manufacturer": "Siemens",
  "ManufacturersModelName": "Prisma",
  "Modality": "MR",
  "MultibandAccelerationFactor": 6,
  "PartialFourier": 1,
  "PatientPosition": "HFS",
  "PercentPhaseFOV": 100,
  "PhaseEncodingDirection": "j",
  "PhaseEncodingSteps": 104,
  "PhaseResolution": 1,
  "PixelBandwidth": 2290,
  "ProcedureStepDescription": "Investigators_Winawer",
  "ProtocolName": "task-sfprescaled_mbepi_s6_2mm_66sl_PA_TR1.0-",
  "PulseSequenceDetails": "%CustomerSeq%_cmrr_mbep2d_bold",
  "ReceiveCoilActiveElements": "HC1-7",
  "ReceiveCoilName": "HeadNeck_64",
  "ReconMatrixPE": 104,
  "RepetitionTime": 1,
  "SAR": 0.0706464,
  "ScanOptions": "FS",
  "ScanningSequence": "EP",
  "SequenceName": "epfid2d1_104",
  "SequenceVariant": "SK_SS",
  "SeriesDescription": "task-sfprescaled_mbepi_s6_2mm_66sl_PA_TR1.0-",
  "SeriesNumber": 30,
  "ShimSetting": [283, -12618, -8461, 445, 86, -59, -129, -57],
  "SliceThickness": 2,
  "SliceTiming": [0, 0.535, 0.09, 0.6225, 0.1775, 0.7125, 0.2675, 0.8025, 0.355, 0.89, 0.445, 0, 0.535, 0.09, 0.6225, 0.1775, 0.7125, 0.2675, 0.8025, 0.355, 0.89, 0.445, 0, 0.535, 0.09, 0.6225, 0.1775, 0.7125, 0.2675, 0.8025, 0.355, 0.89, 0.445, 0, 0.535, 0.09, 0.6225, 0.1775, 0.7125, 0.2675, 0.8025, 0.355, 0.89, 0.445, 0, 0.535, 0.09, 0.6225, 0.1775, 0.7125, 0.2675, 0.8025, 0.355, 0.89, 0.445, 0, 0.535, 0.09, 0.6225, 0.1775, 0.7125, 0.2675, 0.8025, 0.355, 0.89, 0.445],
  "SoftwareVersions": "syngo_MR_E11",
  "SpacingBetweenSlices": 2,
  "StationName": "AWP166018",
  "TaskName": "sfprescaled",
  "TotalReadoutTime": 0.0597409,
  "TxRefAmp": 215.643,
  "WipMemBlock": "34fe9896-9353-452e-b995-7f6b7128c97a||Sequence: R016 ve11c/master r/8780670; Nov 27 2017 15:05:12 by eja",
  "dcmmeta_affine": [
    [-1.9998902082443237, 0.004537566099315882, 0.02045702561736107, 110.97503662109375],
    [8.4012295701541e-05, 1.9542652368545532, -0.42526179552078247, -81.9362564086914],
    [0.020954053848981857, 0.42523759603500366, 1.954158067703247, -73.46516418457031],
    [0.0, 0.0, 0.0, 1.0]
],
  "dcmmeta_reorient_transform": [
    [0.0, -1.0, 0.0, 103.0],
    [1.0, 0.0, 0.0, 0.0],
    [0.0, 0.0, 1.0, 0.0],
    [0.0, 0.0, 0.0, 1.0]
],
  "dcmmeta_shape": [104, 104, 66, 264],
  "dcmmeta_slice_dim": 2,
  "dcmmeta_version": 0.6,
  "global": {
    "const": {
      "AccessionNumber": "jtu6jhmb",
  "NumberOfVolumes": 264,
      "AcquisitionMatrix": [104, 0, 0, 104],
      "AngioFlag": "N",
      "BitsAllocated": 16,
      "BitsStored": 16,
      "BodyPartExamined": "BRAIN",
      "Columns": 936,
      "EchoNumbers": 1,
      "EchoTime": 37.0,
      "EchoTrainLength": 104,
      "FlipAngle": 68.0,
      "HighBit": 15,
      "ImageOrientationPatient": [0.99994511356325, -4.20061489e-05, 0.01047702708094, 0.00226878296554, 0.97713259133393, -0.212618794035],
      "ImagePositionPatient": [-945.28436869193, -932.29242349066, 138.51625926815],
      "ImageType": [
        "ORIGINAL",
        "PRIMARY",
        "M",
        "MB",
        "ND",
        "MOSAIC"
],
      "ImagedNucleus": "1H",
      "ImagingFrequency": 123.191219,
      "InPlanePhaseEncodingDirection": "COL",
      "MRAcquisitionType": "2D",
      "MagneticFieldStrength": 3.0,
      "Manufacturer": "SIEMENS",
      "ManufacturerModelName": "Prisma",
      "Modality": "MR",
      "NumberOfAverages": 1.0,
      "NumberOfPhaseEncodingSteps": 104,
      "PercentPhaseFieldOfView": 100.0,
      "PercentSampling": 100.0,
      "PerformedProcedureStepStartTime": "115204.018000",
      "PhotometricInterpretation": "MONOCHROME2",
      "PixelBandwidth": 2290.0,
      "PixelRepresentation": 0,
      "PixelSpacing": [2.0, 2.0],
      "ProtocolName": "task-sfprescaled_mbepi_s6_2mm_66sl_PA_TR1.0-",
      "RepetitionTime": 1000.0,
      "Rows": 936,
      "SAR": 0.07064645224032,
      "SamplesPerPixel": 1,
      "ScanOptions": "FS",
      "ScanningSequence": "EP",
      "SequenceName": "epfid2d1_104",
      "SequenceVariant": [
        "SK",
        "SS"
],
      "SeriesDescription": "task-sfprescaled_mbepi_s6_2mm_66sl_PA_TR1.0-",
      "SeriesNumber": 30,
      "SeriesTime": "125805.068000",
      "SliceLocation": -53.223982195688,
      "SliceThickness": 2.0,
      "SmallestImagePixelValue": 0,
      "SoftwareVersions": "syngo MR E11",
      "SpacingBetweenSlices": 1.9999999725963,
      "SpecificCharacterSet": "ISO_IR 100",
      "StudyID": "1",
      "StudyTime": "115203.950000",
      "TransmitCoilName": "Body",
      "VariableFlipAngleFlag": "N",
      "WindowCenterWidthExplanation": "Algo1",
      "dBdt": 0.0},
    "slices": {}
  },
  "time": {
    "samples": {
      "AcquisitionNumber": [1, 2, 3, 4, 5, 6, 7, 8, 9, 10, 11, 12, 13, 14, 15, 16, 17, 18, 19, 20, 21, 22, 23, 24, 25, 26, 27, 28, 29, 30, 31, 32, 33, 34, 35, 36, 37, 38, 39, 40, 41, 42, 43, 44, 45, 46, 47, 48, 49, 50, 51, 52, 53, 54, 55, 56, 57, 58, 59, 60, 61, 62, 63, 64, 65, 66, 67, 68, 69, 70, 71, 72, 73, 74, 75, 76, 77, 78, 79, 80, 81, 82, 83, 84, 85, 86, 87, 88, 89, 90, 91, 92, 93, 94, 95, 96, 97, 98, 99, 100, 101, 102, 103, 104, 105, 106, 107, 108, 109, 110, 111, 112, 113, 114, 115, 116, 117, 118, 119, 120, 121, 122, 123, 124, 125, 126, 127, 128, 129, 130, 131, 132, 133, 134, 135, 136, 137, 138, 139, 140, 141, 142, 143, 144, 145, 146, 147, 148, 149, 150, 151, 152, 153, 154, 155, 156, 157, 158, 159, 160, 161, 162, 163, 164, 165, 166, 167, 168, 169, 170, 171, 172, 173, 174, 175, 176, 177, 178, 179, 180, 181, 182, 183, 184, 185, 186, 187, 188, 189, 190, 191, 192, 193, 194, 195, 196, 197, 198, 199, 200, 201, 202, 203, 204, 205, 206, 207, 208, 209, 210, 211, 212, 213, 214, 215, 216, 217, 218, 219, 220, 221, 222, 223, 224, 225, 226, 227, 228, 229, 230, 231, 232, 233, 234, 235, 236, 237, 238, 239, 240, 241, 242, 243, 244, 245, 246, 247, 248, 249, 250, 251, 252, 253, 254, 255, 256, 257, 258, 259, 260, 261, 262, 263, 264],
      "AcquisitionTime": ["125704.582500", "125705.582500", "125706.582500", "125707.582500", "125708.582500", "125709.582500", "125710.582500", "125711.582500", "125712.582500", "125713.582500", "125714.582500", "125715.582500", "125716.582500", "125717.582500", "125718.582500", "125719.582500", "125720.582500", "125721.582500", "125722.582500", "125723.582500", "125724.582500", "125725.582500", "125726.582500", "125727.582500", "125728.582500", "125729.582500", "125730.582500", "125731.582500", "125732.582500", "125733.582500", "125734.582500", "125735.582500", "125736.582500", "125737.582500", "125738.582500", "125739.582500", "125740.582500", "125741.582500", "125742.582500", "125743.582500", "125744.582500", "125745.582500", "125746.582500", "125747.582500", "125748.582500", "125749.582500", "125750.582500", "125751.582500", "125752.582500", "125753.582500", "125754.582500", "125755.582500", "125756.582500", "125757.582500", "125758.582500", "125759.582500", "125800.582500", "125801.582500", "125802.582500", "125803.582500", "125804.582500", "125805.582500", "125806.582500", "125807.582500", "125808.582500", "125809.582500", "125810.582500", "125811.582500", "125812.582500", "125813.582500", "125814.582500", "125815.582500", "125816.582500", "125817.582500", "125818.582500", "125819.582500", "125820.582500", "125821.582500", "125822.582500", "125823.582500", "125824.582500", "125825.582500", "125826.582500", "125827.582500", "125828.582500", "125829.582500", "125830.582500", "125831.582500", "125832.582500", "125833.582500", "125834.582500", "125835.582500", "125836.582500", "125837.582500", "125838.582500", "125839.582500", "125840.582500", "125841.582500", "125842.582500", "125843.582500", "125844.582500", "125845.582500", "125846.582500", "125847.582500", "125848.582500", "125849.582500", "125850.582500", "125851.582500", "125852.582500", "125853.582500", "125854.582500", "125855.582500", "125856.582500", "125857.582500", "125858.582500", "125859.582500", "125900.582500", "125901.582500", "125902.582500", "125903.582500", "125904.582500", "125905.582500", "125906.582500", "125907.582500", "125908.582500", "125909.582500", "125910.582500", "125911.582500", "125912.582500", "125913.582500", "125914.582500", "125915.582500", "125916.582500", "125917.582500", "125918.582500", "125919.582500", "125920.582500", "125921.582500", "125922.582500", "125923.582500", "125924.582500", "125925.582500", "125926.582500", "125927.582500", "125928.582500", "125929.582500", "125930.582500", "125931.582500", "125932.582500", "125933.582500", "125934.582500", "125935.582500", "125936.582500", "125937.582500", "125938.582500", "125939.582500", "125940.582500", "125941.582500", "125942.582500", "125943.582500", "125944.582500", "125945.582500", "125946.582500", "125947.582500", "125948.582500", "125949.582500", "125950.582500", "125951.582500", "125952.582500", "125953.582500", "125954.582500", "125955.582500", "125956.582500", "125957.582500", "125958.582500", "125959.582500", "130000.582500", "130001.582500", "130002.582500", "130003.582500", "130004.582500", "130005.582500", "130006.582500", "130007.582500", "130008.582500", "130009.582500", "130010.582500", "130011.582500", "130012.582500", "130013.582500", "130014.582500", "130015.582500", "130016.582500", "130017.582500", "130018.582500", "130019.582500", "130020.582500", "130021.582500", "130022.582500", "130023.582500", "130024.582500", "130025.582500", "130026.582500", "130027.582500", "130028.582500", "130029.582500", "130030.582500", "130031.582500", "130032.582500", "130033.582500", "130034.582500", "130035.582500", "130036.582500", "130037.582500", "130038.582500", "130039.582500", "130040.582500", "130041.582500", "130042.582500", "130043.582500", "130044.582500", "130045.582500", "130046.582500", "130047.582500", "130048.582500", "130049.582500", "130050.582500", "130051.582500", "130052.582500", "130053.582500", "130054.582500", "130055.582500", "130056.582500", "130057.582500", "130058.582500", "130059.582500", "130100.582500", "130101.582500", "130102.582500", "130103.582500", "130104.582500", "130105.582500", "130106.582500", "130107.582500", "130108.582500", "130109.582500", "130110.582500", "130111.582500", "130112.582500", "130113.582500", "130114.582500", "130115.582500", "130116.582500", "130117.582500", "130118.582500", "130119.582500", "130120.582500", "130121.582500", "130122.582500", "130123.582500", "130124.582500", "130125.582500", "130126.582500", "130127.582500"],
      "ContentTime": ["125805.073000", "125805.076000", "125805.084000", "125805.112000", "125805.115000", "125805.118000", "125810.033000", "125810.045000", "125810.048000", "125810.051000", "125810.060000", "125810.063000", "125810.066000", "125815.033000", "125815.036000", "125815.039000", "125815.042000", "125815.045000", "125815.048000", "125815.050000", "125815.053000", "125820.033000", "125820.036000", "125820.039000", "125820.042000", "125820.048000", "125820.051000", "125820.054000", "125825.033000", "125825.036000", "125825.039000", "125825.042000", "125825.045000", "125825.048000", "125825.051000", "125830.033000", "125830.036000", "125830.039000", "125830.042000", "125830.045000", "125830.060000", "125830.063000", "125835.033000", "125835.036000", "125835.039000", "125835.042000", "125835.045000", "125835.062000", "125835.066000", "125840.032000", "125840.035000", "125840.038000", "125840.041000", "125840.044000", "125840.047000", "125840.050000", "125845.033000", "125845.036000", "125845.039000", "125845.042000", "125845.045000", "125845.048000", "125845.051000", "125850.033000", "125850.036000", "125850.039000", "125850.042000", "125850.045000", "125850.047000", "125850.051000", "125855.033000", "125855.036000", "125855.039000", "125855.042000", "125855.045000", "125855.048000", "125855.051000", "125900.033000", "125900.036000", "125900.039000", "125900.042000", "125900.045000", "125900.048000", "125900.051000", "125905.033000", "125905.036000", "125905.039000", "125905.042000", "125905.045000", "125905.048000", "125905.051000", "125910.033000", "125910.036000", "125910.039000", "125910.042000", "125910.045000", "125910.048000", "125910.051000", "125915.032000", "125915.035000", "125915.038000", "125915.041000", "125915.044000", "125915.047000", "125915.050000", "125920.033000", "125920.036000", "125920.039000", "125920.042000", "125920.045000", "125920.048000", "125920.051000", "125925.033000", "125925.036000", "125925.043000", "125925.046000", "125925.049000", "125925.052000", "125925.055000", "125925.058000", "125930.033000", "125930.036000", "125930.039000", "125930.042000", "125930.045000", "125930.048000", "125930.051000", "125935.033000", "125935.036000", "125935.039000", "125935.049000", "125935.052000", "125935.055000", "125935.058000", "125940.033000", "125940.036000", "125940.039000", "125940.042000", "125940.045000", "125940.048000", "125940.051000", "125945.033000", "125945.036000", "125945.039000", "125945.042000", "125945.045000", "125945.048000", "125945.051000", "125950.032000", "125950.035000", "125950.038000", "125950.041000", "125950.044000", "125950.047000", "125950.050000", "125955.033000", "125955.036000", "125955.039000", "125955.042000", "125955.045000", "125955.048000", "125955.051000", "130000.033000", "130000.036000", "130000.039000", "130000.042000", "130000.045000", "130000.048000", "130000.051000", "130005.033000", "130005.036000", "130005.039000", "130005.042000", "130005.045000", "130005.048000", "130005.051000", "130010.033000", "130010.036000", "130010.039000", "130010.042000", "130010.045000", "130010.048000", "130010.051000", "130015.033000", "130015.036000", "130015.039000", "130015.042000", "130015.045000", "130015.048000", "130020.033000", "130020.036000", "130020.039000", "130020.042000", "130020.045000", "130025.032000", "130025.035000", "130025.038000", "130025.041000", "130025.044000", "130030.033000", "130030.036000", "130030.039000", "130030.042000", "130030.045000", "130035.033000", "130035.036000", "130035.039000", "130035.042000", "130035.045000", "130040.033000", "130040.036000", "130040.039000", "130040.042000", "130040.045000", "130045.033000", "130045.036000", "130045.039000", "130045.042000", "130045.045000", "130050.033000", "130050.036000", "130050.039000", "130050.042000", "130050.045000", "130055.033000", "130055.036000", "130055.039000", "130055.042000", "130055.045000", "130100.032000", "130100.035000", "130100.038000", "130100.041000", "130100.044000", "130105.033000", "130105.036000", "130105.039000", "130105.042000", "130105.045000", "130110.033000", "130110.036000", "130110.049000", "130110.052000", "130110.055000", "130115.033000", "130115.036000", "130115.039000", "130115.042000", "130115.045000", "130120.033000", "130120.036000", "130120.039000", "130120.042000", "130120.045000", "130125.033000", "130125.036000", "130125.039000", "130125.042000", "130125.045000", "130129.411000", "130129.414000", "130129.417000", "130129.420000", "130129.423000"],
      "InstanceCreationTime": ["125805.073000", "125805.076000", "125805.084000", "125805.112000", "125805.115000", "125805.118000", "125810.033000", "125810.045000", "125810.048000", "125810.051000", "125810.060000", "125810.063000", "125810.066000", "125815.033000", "125815.036000", "125815.039000", "125815.042000", "125815.045000", "125815.048000", "125815.050000", "125815.053000", "125820.033000", "125820.036000", "125820.039000", "125820.042000", "125820.048000", "125820.051000", "125820.054000", "125825.033000", "125825.036000", "125825.039000", "125825.042000", "125825.045000", "125825.048000", "125825.051000", "125830.033000", "125830.036000", "125830.039000", "125830.042000", "125830.045000", "125830.060000", "125830.063000", "125835.033000", "125835.036000", "125835.039000", "125835.042000", "125835.045000", "125835.062000", "125835.066000", "125840.032000", "125840.035000", "125840.038000", "125840.041000", "125840.044000", "125840.047000", "125840.050000", "125845.033000", "125845.036000", "125845.039000", "125845.042000", "125845.045000", "125845.048000", "125845.051000", "125850.033000", "125850.036000", "125850.039000", "125850.042000", "125850.045000", "125850.047000", "125850.051000", "125855.033000", "125855.036000", "125855.039000", "125855.042000", "125855.045000", "125855.048000", "125855.051000", "125900.033000", "125900.036000", "125900.039000", "125900.042000", "125900.045000", "125900.048000", "125900.051000", "125905.033000", "125905.036000", "125905.039000", "125905.042000", "125905.045000", "125905.048000", "125905.051000", "125910.033000", "125910.036000", "125910.039000", "125910.042000", "125910.045000", "125910.048000", "125910.051000", "125915.032000", "125915.035000", "125915.038000", "125915.041000", "125915.044000", "125915.047000", "125915.050000", "125920.033000", "125920.036000", "125920.039000", "125920.042000", "125920.045000", "125920.048000", "125920.051000", "125925.033000", "125925.036000", "125925.043000", "125925.046000", "125925.049000", "125925.052000", "125925.055000", "125925.058000", "125930.033000", "125930.036000", "125930.039000", "125930.042000", "125930.045000", "125930.048000", "125930.051000", "125935.033000", "125935.036000", "125935.039000", "125935.049000", "125935.052000", "125935.055000", "125935.058000", "125940.033000", "125940.036000", "125940.039000", "125940.042000", "125940.045000", "125940.048000", "125940.051000", "125945.033000", "125945.036000", "125945.039000", "125945.042000", "125945.045000", "125945.048000", "125945.051000", "125950.032000", "125950.035000", "125950.038000", "125950.041000", "125950.044000", "125950.047000", "125950.050000", "125955.033000", "125955.036000", "125955.039000", "125955.042000", "125955.045000", "125955.048000", "125955.051000", "130000.033000", "130000.036000", "130000.039000", "130000.042000", "130000.045000", "130000.048000", "130000.051000", "130005.033000", "130005.036000", "130005.039000", "130005.042000", "130005.045000", "130005.048000", "130005.051000", "130010.033000", "130010.036000", "130010.039000", "130010.042000", "130010.045000", "130010.048000", "130010.051000", "130015.033000", "130015.036000", "130015.039000", "130015.042000", "130015.045000", "130015.048000", "130020.033000", "130020.036000", "130020.039000", "130020.042000", "130020.045000", "130025.032000", "130025.035000", "130025.038000", "130025.041000", "130025.044000", "130030.033000", "130030.036000", "130030.039000", "130030.042000", "130030.045000", "130035.033000", "130035.036000", "130035.039000", "130035.042000", "130035.045000", "130040.033000", "130040.036000", "130040.039000", "130040.042000", "130040.045000", "130045.033000", "130045.036000", "130045.039000", "130045.042000", "130045.045000", "130050.033000", "130050.036000", "130050.039000", "130050.042000", "130050.045000", "130055.033000", "130055.036000", "130055.039000", "130055.042000", "130055.045000", "130100.032000", "130100.035000", "130100.038000", "130100.041000", "130100.044000", "130105.033000", "130105.036000", "130105.039000", "130105.042000", "130105.045000", "130110.033000", "130110.036000", "130110.049000", "130110.052000", "130110.055000", "130115.033000", "130115.036000", "130115.039000", "130115.042000", "130115.045000", "130120.033000", "130120.036000", "130120.039000", "130120.042000", "130120.045000", "130125.033000", "130125.036000", "130125.039000", "130125.042000", "130125.045000", "130129.411000", "130129.414000", "130129.417000", "130129.420000", "130129.423000"],
      "InstanceNumber": [1, 2, 3, 4, 5, 6, 7, 8, 9, 10, 11, 12, 13, 14, 15, 16, 17, 18, 19, 20, 21, 22, 23, 24, 25, 26, 27, 28, 29, 30, 31, 32, 33, 34, 35, 36, 37, 38, 39, 40, 41, 42, 43, 44, 45, 46, 47, 48, 49, 50, 51, 52, 53, 54, 55, 56, 57, 58, 59, 60, 61, 62, 63, 64, 65, 66, 67, 68, 69, 70, 71, 72, 73, 74, 75, 76, 77, 78, 79, 80, 81, 82, 83, 84, 85, 86, 87, 88, 89, 90, 91, 92, 93, 94, 95, 96, 97, 98, 99, 100, 101, 102, 103, 104, 105, 106, 107, 108, 109, 110, 111, 112, 113, 114, 115, 116, 117, 118, 119, 120, 121, 122, 123, 124, 125, 126, 127, 128, 129, 130, 131, 132, 133, 134, 135, 136, 137, 138, 139, 140, 141, 142, 143, 144, 145, 146, 147, 148, 149, 150, 151, 152, 153, 154, 155, 156, 157, 158, 159, 160, 161, 162, 163, 164, 165, 166, 167, 168, 169, 170, 171, 172, 173, 174, 175, 176, 177, 178, 179, 180, 181, 182, 183, 184, 185, 186, 187, 188, 189, 190, 191, 192, 193, 194, 195, 196, 197, 198, 199, 200, 201, 202, 203, 204, 205, 206, 207, 208, 209, 210, 211, 212, 213, 214, 215, 216, 217, 218, 219, 220, 221, 222, 223, 224, 225, 226, 227, 228, 229, 230, 231, 232, 233, 234, 235, 236, 237, 238, 239, 240, 241, 242, 243, 244, 245, 246, 247, 248, 249, 250, 251, 252, 253, 254, 255, 256, 257, 258, 259, 260, 261, 262, 263, 264],
      "LargestImagePixelValue": [31193, 30488, 29868, 29788, 29580, 29172, 29668, 29412, 29251, 29357, 29505, 29872, 29235, 29311, 29669, 29374, 28738, 29601, 29750, 29614, 29318, 29464, 29556, 29563, 29113, 29450, 29595, 29117, 29533, 29747, 29245, 29233, 29111, 29596, 29219, 29145, 29261, 29402, 29079, 29243, 29442, 29237, 28915, 29085, 29586, 28803, 29133, 29347, 29519, 29542, 29064, 28972, 29906, 29716, 30454, 29295, 29588, 29771, 29320, 29233, 29977, 29119, 29307, 29394, 29696, 29190, 29214, 29084, 29797, 28913, 29468, 29425, 29677, 29602, 29417, 29401, 29429, 30450, 29979, 29882, 29290, 29501, 29708, 29321, 28889, 29516, 29683, 29453, 29154, 29233, 29241, 29432, 29098, 29782, 29010, 28748, 29057, 29320, 29516, 29236, 29706, 29418, 29273, 28936, 29920, 29407, 28760, 29209, 29448, 29388, 28823, 29187, 29407, 29581, 31118, 29304, 30380, 29251, 28979, 29129, 29969, 29319, 29225, 29382, 30046, 29331, 29089, 29923, 29382, 29004, 29426, 29414, 29491, 29192, 29027, 29779, 29652, 28972, 29020, 29602, 29102, 28848, 29127, 29447, 29331, 28903, 28841, 29513, 28975, 29087, 29407, 29290, 29218, 29117, 29442, 29090, 29253, 29339, 29240, 28811, 28884, 29604, 29479, 29666, 29035, 29592, 29217, 29367, 29346, 29590, 29000, 29340, 29107, 29821, 28917, 28955, 29191, 29651, 29003, 28885, 28800, 29401, 29023, 29041, 29219, 29694, 29030, 28937, 29393, 29334, 29190, 28995, 29358, 29272, 29010, 29027, 29194, 28897, 28785, 28779, 29104, 28906, 28944, 29151, 29084, 29197, 28734, 29172, 29190, 28996, 29109, 29402, 29180, 28888, 29226, 28897, 28861, 28889, 29063, 29182, 29052, 28941, 29054, 28817, 28919, 29125, 29013, 29100, 29142, 28967, 29260, 29408, 29168, 29447, 29223, 29267, 28764, 29078, 29503, 29104, 29091, 29292, 29140, 30745, 28957, 28949, 29344, 29001, 29264, 29122, 30389, 28762, 28921, 29128, 29096, 29105, 29242, 28984, 28521, 28925, 29354, 29082, 29329, 29128],
      "WindowCenter": [9587.0, 9549.0, 9529.0, 9519.0, 9511.0, 9503.0, 9513.0, 9503.0, 9495.0, 9499.0, 9492.0, 9489.0, 9476.0, 9488.0, 9495.0, 9485.0, 9486.0, 9521.0, 9533.0, 9536.0, 9540.0, 9539.0, 9524.0, 9514.0, 9504.0, 9510.0, 9513.0, 9506.0, 9517.0, 9523.0, 9505.0, 9503.0, 9501.0, 9500.0, 9493.0, 9492.0, 9500.0, 9507.0, 9509.0, 9521.0, 9534.0, 9522.0, 9508.0, 9512.0, 9511.0, 9492.0, 9496.0, 9503.0, 9510.0, 9511.0, 9513.0, 9524.0, 9528.0, 9527.0, 9537.0, 9520.0, 9518.0, 9516.0, 9511.0, 9520.0, 9541.0, 9535.0, 9546.0, 9554.0, 9554.0, 9535.0, 9524.0, 9523.0, 9527.0, 9508.0, 9518.0, 9512.0, 9517.0, 9524.0, 9536.0, 9548.0, 9548.0, 9556.0, 9543.0, 9528.0, 9513.0, 9497.0, 9499.0, 9492.0, 9479.0, 9490.0, 9495.0, 9480.0, 9467.0, 9467.0, 9476.0, 9481.0, 9477.0, 9497.0, 9486.0, 9481.0, 9494.0, 9500.0, 9501.0, 9504.0, 9524.0, 9511.0, 9510.0, 9497.0, 9513.0, 9500.0, 9497.0, 9514.0, 9536.0, 9531.0, 9518.0, 9523.0, 9522.0, 9513.0, 9540.0, 9505.0, 9520.0, 9495.0, 9495.0, 9502.0, 9523.0, 9516.0, 9521.0, 9539.0, 9553.0, 9533.0, 9523.0, 9531.0, 9504.0, 9488.0, 9491.0, 9491.0, 9489.0, 9484.0, 9492.0, 9506.0, 9506.0, 9493.0, 9502.0, 9515.0, 9510.0, 9499.0, 9507.0, 9527.0, 9520.0, 9507.0, 9507.0, 9511.0, 9497.0, 9490.0, 9494.0, 9493.0, 9486.0, 9503.0, 9512.0, 9513.0, 9514.0, 9520.0, 9516.0, 9502.0, 9493.0, 9516.0, 9502.0, 9507.0, 9503.0, 9516.0, 9516.0, 9531.0, 9532.0, 9530.0, 9508.0, 9510.0, 9505.0, 9506.0, 9473.0, 9472.0, 9478.0, 9488.0, 9484.0, 9482.0, 9493.0, 9516.0, 9521.0, 9531.0, 9532.0, 9538.0, 9532.0, 9519.0, 9531.0, 9524.0, 9506.0, 9498.0, 9503.0, 9486.0, 9483.0, 9485.0, 9490.0, 9486.0, 9497.0, 9515.0, 9523.0, 9524.0, 9524.0, 9522.0, 9504.0, 9495.0, 9482.0, 9494.0, 9487.0, 9493.0, 9496.0, 9500.0, 9478.0, 9472.0, 9484.0, 9479.0, 9477.0, 9485.0, 9503.0, 9520.0, 9512.0, 9508.0, 9513.0, 9498.0, 9489.0, 9495.0, 9493.0, 9500.0, 9503.0, 9527.0, 9549.0, 9548.0, 9537.0, 9533.0, 9516.0, 9504.0, 9491.0, 9495.0, 9508.0, 9498.0, 9511.0, 9522.0, 9507.0, 9527.0, 9490.0, 9490.0, 9493.0, 9493.0, 9488.0, 9485.0, 9501.0, 9471.0, 9468.0, 9473.0, 9477.0, 9496.0, 9504.0, 9506.0, 9501.0, 9499.0, 9494.0, 9477.0, 9482.0, 9477.0],
      "WindowWidth": [20530.0, 20448.0, 20408.0, 20385.0, 20365.0, 20349.0, 20364.0, 20346.0, 20331.0, 20336.0, 20322.0, 20311.0, 20288.0, 20311.0, 20324.0, 20306.0, 20311.0, 20383.0, 20413.0, 20424.0, 20436.0, 20436.0, 20402.0, 20377.0, 20357.0, 20369.0, 20379.0, 20365.0, 20384.0, 20392.0, 20361.0, 20351.0, 20344.0, 20337.0, 20326.0, 20326.0, 20343.0, 20357.0, 20364.0, 20391.0, 20416.0, 20389.0, 20362.0, 20369.0, 20366.0, 20331.0, 20335.0, 20353.0, 20368.0, 20372.0, 20379.0, 20403.0, 20408.0, 20403.0, 20417.0, 20389.0, 20385.0, 20377.0, 20371.0, 20397.0, 20440.0, 20434.0, 20457.0, 20474.0, 20472.0, 20430.0, 20405.0, 20404.0, 20408.0, 20369.0, 20385.0, 20374.0, 20384.0, 20400.0, 20431.0, 20459.0, 20457.0, 20459.0, 20434.0, 20404.0, 20370.0, 20337.0, 20340.0, 20324.0, 20297.0, 20317.0, 20323.0, 20292.0, 20267.0, 20269.0, 20288.0, 20296.0, 20293.0, 20331.0, 20314.0, 20307.0, 20330.0, 20340.0, 20343.0, 20352.0, 20392.0, 20365.0, 20360.0, 20338.0, 20361.0, 20339.0, 20340.0, 20380.0, 20428.0, 20416.0, 20391.0, 20399.0, 20397.0, 20374.0, 20417.0, 20356.0, 20379.0, 20333.0, 20335.0, 20349.0, 20390.0, 20378.0, 20396.0, 20438.0, 20463.0, 20421.0, 20397.0, 20403.0, 20346.0, 20311.0, 20318.0, 20320.0, 20314.0, 20307.0, 20327.0, 20354.0, 20353.0, 20327.0, 20350.0, 20378.0, 20368.0, 20350.0, 20371.0, 20409.0, 20392.0, 20364.0, 20364.0, 20371.0, 20342.0, 20328.0, 20337.0, 20331.0, 20320.0, 20355.0, 20380.0, 20383.0, 20384.0, 20394.0, 20385.0, 20355.0, 20335.0, 20376.0, 20351.0, 20357.0, 20355.0, 20383.0, 20390.0, 20420.0, 20425.0, 20413.0, 20363.0, 20361.0, 20352.0, 20348.0, 20285.0, 20282.0, 20296.0, 20313.0, 20305.0, 20305.0, 20332.0, 20381.0, 20397.0, 20417.0, 20422.0, 20431.0, 20419.0, 20398.0, 20419.0, 20401.0, 20359.0, 20341.0, 20349.0, 20314.0, 20302.0, 20311.0, 20321.0, 20315.0, 20341.0, 20385.0, 20401.0, 20403.0, 20401.0, 20391.0, 20350.0, 20329.0, 20308.0, 20328.0, 20315.0, 20329.0, 20336.0, 20337.0, 20291.0, 20281.0, 20308.0, 20301.0, 20295.0, 20313.0, 20357.0, 20390.0, 20373.0, 20365.0, 20372.0, 20340.0, 20320.0, 20330.0, 20327.0, 20342.0, 20354.0, 20410.0, 20462.0, 20460.0, 20435.0, 20421.0, 20384.0, 20355.0, 20332.0, 20338.0, 20363.0, 20347.0, 20375.0, 20401.0, 20370.0, 20395.0, 20330.0, 20328.0, 20328.0, 20329.0, 20320.0, 20310.0, 20334.0, 20280.0, 20270.0, 20278.0, 20292.0, 20336.0, 20356.0, 20359.0, 20348.0, 20340.0, 20320.0, 20285.0, 20293.0, 20287.0]
    },
    "slices": {}
  }
}