{
  "AcquisitionMatrixPE": 104,
  "AcquisitionNumber": 1,
  "AcquisitionTime": "12:06:44.755000",
  "BandwidthPerPixelPhaseEncode": 16.578,
  "BaseResolution": 104,
  "BodyPartExamined": "BRAIN",
  "ConsistencyInfo": "N4_VE11C_LATEST_20160120",
  "ConversionSoftware": "dcm2niix",
  "ConversionSoftwareVersion": "v1.0.20190410  GCC6.3.0",
  "DerivedVendorReportedEchoSpacing": 0.000580009,
  "DeviceSerialNumber": "166018",
  "DwellTime": 2.1e-06,
  "EchoTime": 0.037,
  "EchoTrainLength": 104,
  "EffectiveEchoSpacing": 0.000580009,
  "FlipAngle": 68,
  "ImageComments": "Unaliased_MB6_PE3_LB",
  "ImageOrientationPatientDICOM": [0.999806, -0.017416, -0.00914958, 0.0150081, 0.975913, -0.217641],
  "ImageType": [
    "ORIGINAL",
    "PRIMARY",
    "M",
    "MB",
    "ND",
    "MOSAIC"
],
  "ImagingFrequency": 123.191,
  "InPlanePhaseEncodingDirectionDICOM": "COL",
  "InstitutionAddress": "Washington_Place_6_NYC_NYC_US_10003",
  "InstitutionName": "NYU_Center_for_Brain_Imaging",
  "InstitutionalDepartmentName": "Department",
  "MRAcquisitionType": "2D",
  "MagneticFieldStrength": 3,
  "Manufacturer": "Siemens",
  "ManufacturersModelName": "Prisma",
  "Modality": "MR",
  "MultibandAccelerationFactor": 6,
  "PartialFourier": 1,
  "PatientPosition": "HFS",
  "PercentPhaseFOV": 100,
  "PhaseEncodingDirection": "j",
  "PhaseEncodingSteps": 104,
  "PhaseResolution": 1,
  "PixelBandwidth": 2290,
  "ProcedureStepDescription": "Investigators_Winawer",
  "ProtocolName": "task-sfprescaled_cmrr_mbepi_s6_2mm_66sl_PA_TR1.0",
  "PulseSequenceDetails": "%CustomerSeq%_cmrr_mbep2d_bold",
  "ReceiveCoilActiveElements": "HC1-7",
  "ReceiveCoilName": "HeadNeck_64",
  "ReconMatrixPE": 104,
  "RepetitionTime": 1,
  "SAR": 0.0710762,
  "ScanOptions": "FS",
  "ScanningSequence": "EP",
  "SequenceName": "epfid2d1_104",
  "SequenceVariant": "SK_SS",
  "SeriesDescription": "task-sfprescaled_cmrr_mbepi_s6_2mm_66sl_PA_TR1.0",
  "SeriesNumber": 28,
  "ShimSetting": [279, -12606, -8449, 336, -4, -238, -109, -14],
  "SliceThickness": 2,
  "SliceTiming": [0, 0.5325, 0.0875, 0.6225, 0.1775, 0.7125, 0.2675, 0.8, 0.355, 0.89, 0.445, 0, 0.5325, 0.0875, 0.6225, 0.1775, 0.7125, 0.2675, 0.8, 0.355, 0.89, 0.445, 0, 0.5325, 0.0875, 0.6225, 0.1775, 0.7125, 0.2675, 0.8, 0.355, 0.89, 0.445, 0, 0.5325, 0.0875, 0.6225, 0.1775, 0.7125, 0.2675, 0.8, 0.355, 0.89, 0.445, 0, 0.5325, 0.0875, 0.6225, 0.1775, 0.7125, 0.2675, 0.8, 0.355, 0.89, 0.445, 0, 0.5325, 0.0875, 0.6225, 0.1775, 0.7125, 0.2675, 0.8, 0.355, 0.89, 0.445],
  "SoftwareVersions": "syngo_MR_E11",
  "SpacingBetweenSlices": 2,
  "StationName": "AWP166018",
  "TaskName": "sfprescaled",
  "TotalReadoutTime": 0.0597409,
  "TxRefAmp": 245.7,
  "WipMemBlock": "72863f80-38b2-4e52-a741-2bdc88044504||Sequence: R016 ve11c/master r/8780670; Nov 27 2017 15:05:12 by eja",
  "dcmmeta_affine": [
    [-1.9996129274368286, 0.030016222968697548, -0.025439279153943062, 106.42506408691406],
    [0.03483204543590546, 1.9518269300460815, -0.4349231719970703, -69.68172454833984],
    [-0.01829916052520275, 0.43528205156326294, 1.9519720077514648, -66.03307342529297],
    [0.0, 0.0, 0.0, 1.0]
],
  "dcmmeta_reorient_transform": [
    [0.0, -1.0, 0.0, 103.0],
    [1.0, 0.0, 0.0, 0.0],
    [0.0, 0.0, 1.0, 0.0],
    [0.0, 0.0, 0.0, 1.0]
],
  "dcmmeta_shape": [104, 104, 66, 264],
  "dcmmeta_slice_dim": 2,
  "dcmmeta_version": 0.6,
  "global": {
    "const": {
      "AccessionNumber": "k5rbL6p1",
      "AcquisitionMatrix": [104, 0, 0, 104],
      "AngioFlag": "N",
      "BitsAllocated": 16,
      "BitsStored": 16,
      "BodyPartExamined": "BRAIN",
      "Columns": 936,
      "EchoNumbers": 1,
      "EchoTime": 37.0,
      "EchoTrainLength": 104,
      "FlipAngle": 68.0,
      "HighBit": 15,
      "ImageOrientationPatient": [0.99980646495223, -0.0174160221162, -0.0091495799559, 0.0150081115578, 0.97591349025416, -0.2176410258371],
      "ImagePositionPatient": [-953.84246633373, -928.82634822519, 167.4907630342],
      "ImageType": [
        "ORIGINAL",
        "PRIMARY",
        "M",
        "MB",
        "ND",
        "MOSAIC"
],
      "ImagedNucleus": "1H",
      "ImagingFrequency": 123.190714,
      "InPlanePhaseEncodingDirection": "COL",
      "MRAcquisitionType": "2D",
      "MagneticFieldStrength": 3.0,
      "Manufacturer": "SIEMENS",
      "ManufacturerModelName": "Prisma",
      "Modality": "MR",
      "NumberOfAverages": 1.0,
      "NumberOfPhaseEncodingSteps": 104,
      "PercentPhaseFieldOfView": 100.0,
      "PercentSampling": 100.0,
      "PerformedProcedureStepStartTime": "111304.219000",
      "PhotometricInterpretation": "MONOCHROME2",
      "PixelBandwidth": 2290.0,
      "PixelRepresentation": 0,
      "PixelSpacing": [2.0, 2.0],
      "ProtocolName": "task-sfprescaled_cmrr_mbepi_s6_2mm_66sl_PA_TR1.0",
      "RepetitionTime": 1000.0,
      "Rows": 936,
      "SAR": 0.07107616936717,
      "SamplesPerPixel": 1,
      "ScanOptions": "FS",
      "ScanningSequence": "EP",
      "SequenceName": "epfid2d1_104",
      "SequenceVariant": [
        "SK",
        "SS"
],
      "SeriesDescription": "task-sfprescaled_cmrr_mbepi_s6_2mm_66sl_PA_TR1.0",
      "SeriesNumber": 28,
      "SeriesTime": "120805.668000",
      "SliceLocation": -50.647944165855,
      "SliceThickness": 2.0,
      "SmallestImagePixelValue": 0,
      "SoftwareVersions": "syngo MR E11",
      "SpacingBetweenSlices": 1.9999999674386,
      "SpecificCharacterSet": "ISO_IR 100",
      "StudyID": "1",
      "StudyTime": "111304.154000",
      "TransmitCoilName": "Body",
      "VariableFlipAngleFlag": "N",
      "WindowCenterWidthExplanation": "Algo1",
      "dBdt": 0.0},
    "slices": {}
  },
  "time": {
    "samples": {
      "AcquisitionNumber": [1, 2, 3, 4, 5, 6, 7, 8, 9, 10, 11, 12, 13, 14, 15, 16, 17, 18, 19, 20, 21, 22, 23, 24, 25, 26, 27, 28, 29, 30, 31, 32, 33, 34, 35, 36, 37, 38, 39, 40, 41, 42, 43, 44, 45, 46, 47, 48, 49, 50, 51, 52, 53, 54, 55, 56, 57, 58, 59, 60, 61, 62, 63, 64, 65, 66, 67, 68, 69, 70, 71, 72, 73, 74, 75, 76, 77, 78, 79, 80, 81, 82, 83, 84, 85, 86, 87, 88, 89, 90, 91, 92, 93, 94, 95, 96, 97, 98, 99, 100, 101, 102, 103, 104, 105, 106, 107, 108, 109, 110, 111, 112, 113, 114, 115, 116, 117, 118, 119, 120, 121, 122, 123, 124, 125, 126, 127, 128, 129, 130, 131, 132, 133, 134, 135, 136, 137, 138, 139, 140, 141, 142, 143, 144, 145, 146, 147, 148, 149, 150, 151, 152, 153, 154, 155, 156, 157, 158, 159, 160, 161, 162, 163, 164, 165, 166, 167, 168, 169, 170, 171, 172, 173, 174, 175, 176, 177, 178, 179, 180, 181, 182, 183, 184, 185, 186, 187, 188, 189, 190, 191, 192, 193, 194, 195, 196, 197, 198, 199, 200, 201, 202, 203, 204, 205, 206, 207, 208, 209, 210, 211, 212, 213, 214, 215, 216, 217, 218, 219, 220, 221, 222, 223, 224, 225, 226, 227, 228, 229, 230, 231, 232, 233, 234, 235, 236, 237, 238, 239, 240, 241, 242, 243, 244, 245, 246, 247, 248, 249, 250, 251, 252, 253, 254, 255, 256, 257, 258, 259, 260, 261, 262, 263, 264],
      "AcquisitionTime": ["120644.755000", "120645.755000", "120646.755000", "120647.755000", "120648.755000", "120649.755000", "120650.755000", "120651.755000", "120652.755000", "120653.755000", "120654.755000", "120655.755000", "120656.755000", "120657.755000", "120658.755000", "120659.755000", "120700.755000", "120701.755000", "120702.755000", "120703.755000", "120704.755000", "120705.755000", "120706.755000", "120707.755000", "120708.755000", "120709.755000", "120710.755000", "120711.755000", "120712.755000", "120713.755000", "120714.755000", "120715.755000", "120716.755000", "120717.755000", "120718.755000", "120719.755000", "120720.755000", "120721.755000", "120722.755000", "120723.755000", "120724.755000", "120725.755000", "120726.755000", "120727.755000", "120728.755000", "120729.755000", "120730.755000", "120731.755000", "120732.755000", "120733.755000", "120734.755000", "120735.755000", "120736.755000", "120737.755000", "120738.755000", "120739.755000", "120740.755000", "120741.755000", "120742.755000", "120743.755000", "120744.755000", "120745.755000", "120746.755000", "120747.755000", "120748.755000", "120749.755000", "120750.755000", "120751.755000", "120752.755000", "120753.755000", "120754.755000", "120755.755000", "120756.755000", "120757.755000", "120758.755000", "120759.755000", "120800.755000", "120801.755000", "120802.755000", "120803.755000", "120804.755000", "120805.755000", "120806.755000", "120807.755000", "120808.755000", "120809.755000", "120810.755000", "120811.755000", "120812.755000", "120813.755000", "120814.755000", "120815.755000", "120816.755000", "120817.755000", "120818.755000", "120819.755000", "120820.755000", "120821.755000", "120822.755000", "120823.755000", "120824.755000", "120825.755000", "120826.755000", "120827.755000", "120828.755000", "120829.755000", "120830.755000", "120831.755000", "120832.755000", "120833.755000", "120834.755000", "120835.755000", "120836.755000", "120837.755000", "120838.755000", "120839.755000", "120840.755000", "120841.755000", "120842.755000", "120843.755000", "120844.755000", "120845.755000", "120846.755000", "120847.755000", "120848.755000", "120849.755000", "120850.755000", "120851.755000", "120852.755000", "120853.755000", "120854.755000", "120855.755000", "120856.755000", "120857.755000", "120858.755000", "120859.755000", "120900.755000", "120901.755000", "120902.755000", "120903.755000", "120904.755000", "120905.755000", "120906.755000", "120907.755000", "120908.755000", "120909.755000", "120910.755000", "120911.755000", "120912.755000", "120913.755000", "120914.755000", "120915.755000", "120916.755000", "120917.755000", "120918.755000", "120919.755000", "120920.755000", "120921.755000", "120922.755000", "120923.755000", "120924.755000", "120925.755000", "120926.755000", "120927.755000", "120928.755000", "120929.755000", "120930.755000", "120931.755000", "120932.755000", "120933.755000", "120934.755000", "120935.755000", "120936.755000", "120937.755000", "120938.755000", "120939.755000", "120940.755000", "120941.755000", "120942.755000", "120943.755000", "120944.755000", "120945.755000", "120946.755000", "120947.755000", "120948.755000", "120949.755000", "120950.755000", "120951.755000", "120952.755000", "120953.755000", "120954.755000", "120955.755000", "120956.755000", "120957.755000", "120958.755000", "120959.755000", "121000.755000", "121001.755000", "121002.755000", "121003.755000", "121004.755000", "121005.755000", "121006.755000", "121007.755000", "121008.755000", "121009.755000", "121010.755000", "121011.755000", "121012.755000", "121013.755000", "121014.755000", "121015.755000", "121016.755000", "121017.755000", "121018.755000", "121019.755000", "121020.755000", "121021.755000", "121022.755000", "121023.755000", "121024.755000", "121025.755000", "121026.755000", "121027.755000", "121028.755000", "121029.755000", "121030.755000", "121031.755000", "121032.755000", "121033.755000", "121034.755000", "121035.755000", "121036.755000", "121037.755000", "121038.755000", "121039.755000", "121040.755000", "121041.755000", "121042.755000", "121043.755000", "121044.755000", "121045.755000", "121046.755000", "121047.755000", "121048.755000", "121049.755000", "121050.755000", "121051.755000", "121052.755000", "121053.755000", "121054.755000", "121055.755000", "121056.755000", "121057.755000", "121058.755000", "121059.755000", "121100.755000", "121101.755000", "121102.755000", "121103.755000", "121104.755000", "121105.755000", "121106.755000", "121107.755000"],
      "ContentTime": ["120805.671000", "120805.675000", "120805.678000", "120805.681000", "120805.683000", "120805.692000", "120805.695000", "120805.698000", "120805.700000", "120805.703000", "120805.706000", "120805.722000", "120805.726000", "120805.729000", "120805.732000", "120805.738000", "120805.741000", "120805.744000", "120805.747000", "120805.750000", "120805.753000", "120805.756000", "120805.759000", "120805.762000", "120805.765000", "120805.768000", "120805.771000", "120805.774000", "120805.777000", "120805.780000", "120805.782000", "120805.785000", "120805.788000", "120805.791000", "120805.794000", "120805.797000", "120805.800000", "120805.803000", "120805.806000", "120805.809000", "120805.812000", "120825.624000", "120825.627000", "120825.630000", "120825.637000", "120825.640000", "120825.643000", "120825.646000", "120825.649000", "120825.651000", "120825.654000", "120825.657000", "120825.660000", "120825.663000", "120825.666000", "120825.669000", "120825.672000", "120825.675000", "120825.678000", "120825.681000", "120825.684000", "120825.686000", "120825.689000", "120825.692000", "120825.695000", "120825.698000", "120825.701000", "120825.704000", "120825.707000", "120825.710000", "120845.624000", "120845.627000", "120845.630000", "120845.633000", "120845.640000", "120845.643000", "120845.646000", "120845.649000", "120845.652000", "120845.654000", "120845.657000", "120845.660000", "120845.663000", "120845.666000", "120845.669000", "120845.672000", "120845.675000", "120845.678000", "120845.681000", "120845.684000", "120845.687000", "120845.690000", "120845.693000", "120845.695000", "120845.698000", "120845.701000", "120845.704000", "120845.707000", "120845.710000", "120905.623000", "120905.626000", "120905.629000", "120905.632000", "120905.635000", "120905.638000", "120905.641000", "120905.644000", "120905.647000", "120905.650000", "120905.653000", "120905.655000", "120905.659000", "120905.661000", "120905.664000", "120905.667000", "120905.670000", "120905.673000", "120905.676000", "120905.679000", "120905.682000", "120905.685000", "120905.688000", "120905.690000", "120905.693000", "120905.696000", "120905.699000", "120905.702000", "120925.623000", "120925.626000", "120925.629000", "120925.632000", "120925.635000", "120925.638000", "120925.641000", "120925.644000", "120925.647000", "120925.650000", "120925.652000", "120925.655000", "120925.658000", "120925.661000", "120925.664000", "120925.667000", "120925.670000", "120925.673000", "120925.676000", "120925.679000", "120925.682000", "120925.685000", "120925.688000", "120925.690000", "120925.693000", "120925.696000", "120925.699000", "120925.702000", "120945.623000", "120945.626000", "120945.630000", "120945.633000", "120945.636000", "120945.638000", "120945.642000", "120945.644000", "120945.647000", "120945.650000", "120945.653000", "120945.656000", "120945.659000", "120945.662000", "120945.670000", "120945.673000", "120945.676000", "120945.679000", "120945.682000", "120945.685000", "120945.688000", "120945.691000", "120945.694000", "120945.697000", "121005.623000", "121005.626000", "121005.629000", "121005.632000", "121005.635000", "121005.638000", "121005.641000", "121005.644000", "121005.647000", "121005.650000", "121005.653000", "121005.656000", "121005.659000", "121005.661000", "121005.664000", "121005.667000", "121005.670000", "121005.673000", "121005.676000", "121005.691000", "121025.623000", "121025.626000", "121025.629000", "121025.632000", "121025.635000", "121025.638000", "121025.641000", "121025.644000", "121025.647000", "121025.650000", "121025.653000", "121025.656000", "121025.659000", "121025.662000", "121025.665000", "121025.667000", "121025.670000", "121025.673000", "121025.676000", "121025.679000", "121045.624000", "121045.627000", "121045.639000", "121045.642000", "121045.645000", "121045.648000", "121045.651000", "121045.654000", "121045.657000", "121045.660000", "121045.663000", "121045.666000", "121045.669000", "121045.672000", "121045.675000", "121045.678000", "121045.681000", "121045.684000", "121045.687000", "121045.689000", "121105.624000", "121105.627000", "121105.630000", "121105.633000", "121105.636000", "121105.639000", "121105.642000", "121105.645000", "121105.648000", "121105.651000", "121105.654000", "121105.657000", "121105.660000", "121105.663000", "121105.666000", "121105.669000", "121105.671000", "121105.674000", "121105.677000", "121105.680000", "121109.671000", "121109.675000", "121109.678000", "121109.682000", "121109.687000"],
      "InstanceCreationTime": ["120805.671000", "120805.675000", "120805.678000", "120805.681000", "120805.683000", "120805.692000", "120805.695000", "120805.698000", "120805.700000", "120805.703000", "120805.706000", "120805.722000", "120805.726000", "120805.729000", "120805.732000", "120805.738000", "120805.741000", "120805.744000", "120805.747000", "120805.750000", "120805.753000", "120805.756000", "120805.759000", "120805.762000", "120805.765000", "120805.768000", "120805.771000", "120805.774000", "120805.777000", "120805.780000", "120805.782000", "120805.785000", "120805.788000", "120805.791000", "120805.794000", "120805.797000", "120805.800000", "120805.803000", "120805.806000", "120805.809000", "120805.812000", "120825.624000", "120825.627000", "120825.630000", "120825.637000", "120825.640000", "120825.643000", "120825.646000", "120825.649000", "120825.651000", "120825.654000", "120825.657000", "120825.660000", "120825.663000", "120825.666000", "120825.669000", "120825.672000", "120825.675000", "120825.678000", "120825.681000", "120825.684000", "120825.686000", "120825.689000", "120825.692000", "120825.695000", "120825.698000", "120825.701000", "120825.704000", "120825.707000", "120825.710000", "120845.624000", "120845.627000", "120845.630000", "120845.633000", "120845.640000", "120845.643000", "120845.646000", "120845.649000", "120845.652000", "120845.654000", "120845.657000", "120845.660000", "120845.663000", "120845.666000", "120845.669000", "120845.672000", "120845.675000", "120845.678000", "120845.681000", "120845.684000", "120845.687000", "120845.690000", "120845.693000", "120845.695000", "120845.698000", "120845.701000", "120845.704000", "120845.707000", "120845.710000", "120905.623000", "120905.626000", "120905.629000", "120905.632000", "120905.635000", "120905.638000", "120905.641000", "120905.644000", "120905.647000", "120905.650000", "120905.653000", "120905.655000", "120905.659000", "120905.661000", "120905.664000", "120905.667000", "120905.670000", "120905.673000", "120905.676000", "120905.679000", "120905.682000", "120905.685000", "120905.688000", "120905.690000", "120905.693000", "120905.696000", "120905.699000", "120905.702000", "120925.623000", "120925.626000", "120925.629000", "120925.632000", "120925.635000", "120925.638000", "120925.641000", "120925.644000", "120925.647000", "120925.650000", "120925.652000", "120925.655000", "120925.658000", "120925.661000", "120925.664000", "120925.667000", "120925.670000", "120925.673000", "120925.676000", "120925.679000", "120925.682000", "120925.685000", "120925.688000", "120925.690000", "120925.693000", "120925.696000", "120925.699000", "120925.702000", "120945.623000", "120945.626000", "120945.630000", "120945.633000", "120945.636000", "120945.638000", "120945.642000", "120945.644000", "120945.647000", "120945.650000", "120945.653000", "120945.656000", "120945.659000", "120945.662000", "120945.670000", "120945.673000", "120945.676000", "120945.679000", "120945.682000", "120945.685000", "120945.688000", "120945.691000", "120945.694000", "120945.697000", "121005.623000", "121005.626000", "121005.629000", "121005.632000", "121005.635000", "121005.638000", "121005.641000", "121005.644000", "121005.647000", "121005.650000", "121005.653000", "121005.656000", "121005.659000", "121005.661000", "121005.664000", "121005.667000", "121005.670000", "121005.673000", "121005.676000", "121005.691000", "121025.623000", "121025.626000", "121025.629000", "121025.632000", "121025.635000", "121025.638000", "121025.641000", "121025.644000", "121025.647000", "121025.650000", "121025.653000", "121025.656000", "121025.659000", "121025.662000", "121025.665000", "121025.667000", "121025.670000", "121025.673000", "121025.676000", "121025.679000", "121045.624000", "121045.627000", "121045.639000", "121045.642000", "121045.645000", "121045.648000", "121045.651000", "121045.654000", "121045.657000", "121045.660000", "121045.663000", "121045.666000", "121045.669000", "121045.672000", "121045.675000", "121045.678000", "121045.681000", "121045.684000", "121045.687000", "121045.689000", "121105.624000", "121105.627000", "121105.630000", "121105.633000", "121105.636000", "121105.639000", "121105.642000", "121105.645000", "121105.648000", "121105.651000", "121105.654000", "121105.657000", "121105.660000", "121105.663000", "121105.666000", "121105.669000", "121105.671000", "121105.674000", "121105.677000", "121105.680000", "121109.671000", "121109.675000", "121109.678000", "121109.682000", "121109.687000"],
      "InstanceNumber": [1, 2, 3, 4, 5, 6, 7, 8, 9, 10, 11, 12, 13, 14, 15, 16, 17, 18, 19, 20, 21, 22, 23, 24, 25, 26, 27, 28, 29, 30, 31, 32, 33, 34, 35, 36, 37, 38, 39, 40, 41, 42, 43, 44, 45, 46, 47, 48, 49, 50, 51, 52, 53, 54, 55, 56, 57, 58, 59, 60, 61, 62, 63, 64, 65, 66, 67, 68, 69, 70, 71, 72, 73, 74, 75, 76, 77, 78, 79, 80, 81, 82, 83, 84, 85, 86, 87, 88, 89, 90, 91, 92, 93, 94, 95, 96, 97, 98, 99, 100, 101, 102, 103, 104, 105, 106, 107, 108, 109, 110, 111, 112, 113, 114, 115, 116, 117, 118, 119, 120, 121, 122, 123, 124, 125, 126, 127, 128, 129, 130, 131, 132, 133, 134, 135, 136, 137, 138, 139, 140, 141, 142, 143, 144, 145, 146, 147, 148, 149, 150, 151, 152, 153, 154, 155, 156, 157, 158, 159, 160, 161, 162, 163, 164, 165, 166, 167, 168, 169, 170, 171, 172, 173, 174, 175, 176, 177, 178, 179, 180, 181, 182, 183, 184, 185, 186, 187, 188, 189, 190, 191, 192, 193, 194, 195, 196, 197, 198, 199, 200, 201, 202, 203, 204, 205, 206, 207, 208, 209, 210, 211, 212, 213, 214, 215, 216, 217, 218, 219, 220, 221, 222, 223, 224, 225, 226, 227, 228, 229, 230, 231, 232, 233, 234, 235, 236, 237, 238, 239, 240, 241, 242, 243, 244, 245, 246, 247, 248, 249, 250, 251, 252, 253, 254, 255, 256, 257, 258, 259, 260, 261, 262, 263, 264],
      "LargestImagePixelValue": [35780, 33809, 32880, 33444, 32657, 31793, 32280, 32542, 32321, 32530, 31893, 33041, 32826, 32698, 32269, 32991, 33162, 32828, 32676, 32917, 33259, 33525, 33069, 32954, 33126, 33302, 33402, 33799, 33553, 34012, 34240, 33711, 33357, 34284, 33656, 33963, 33611, 33983, 33193, 33564, 33554, 33593, 33795, 34328, 34155, 34192, 33738, 34305, 33715, 33919, 33360, 33834, 33777, 33361, 33689, 34163, 34540, 33673, 34160, 34773, 34592, 34480, 34086, 34432, 33995, 34005, 33939, 33612, 34243, 34116, 33603, 33937, 33813, 33811, 33847, 34204, 33804, 33687, 33559, 33444, 33845, 32846, 33481, 33776, 33892, 33168, 33723, 33558, 34059, 33724, 33211, 33948, 34130, 33274, 33412, 33834, 33688, 33485, 33196, 34034, 33574, 33513, 33591, 33606, 33516, 33900, 33716, 33647, 31537, 31500, 31759, 32011, 31580, 31509, 31358, 31786, 31138, 31523, 31066, 31451, 31357, 31571, 31679, 31379, 31353, 31353, 31413, 31420, 31474, 31337, 31656, 31254, 30914, 31455, 31228, 31469, 32178, 31748, 31351, 31277, 31339, 31399, 31375, 31318, 31102, 31622, 31531, 31783, 31400, 31450, 31842, 31547, 31211, 31300, 31170, 31360, 32000, 31756, 31807, 31170, 31915, 31256, 31522, 31085, 30990, 31276, 31135, 31656, 31885, 31520, 31686, 31799, 31132, 31252, 30994, 31431, 31525, 31356, 31257, 30998, 30462, 30917, 31134, 31081, 30933, 31313, 31272, 31161, 31875, 31443, 31422, 31192, 31277, 31296, 31828, 31522, 31727, 31709, 31118, 32184, 31828, 31686, 31406, 31334, 31638, 31508, 31702, 31641, 31521, 31595, 31679, 31487, 31585, 31742, 31823, 31536, 31291, 31071, 31194, 31188, 31307, 31121, 31343, 31793, 31496, 31317, 31241, 31717, 31443, 31435, 31740, 31514, 31729, 31731, 31664, 31731, 32060, 31407, 31465, 30659, 30794, 31289, 31026, 30961, 31177, 30749, 30970, 30963, 31209, 31372, 31251, 30714, 31153, 31421, 31267, 31025, 31327, 31242, 30939, 31238, 31153, 31275, 31139, 31012],
      "WindowCenter": [9626.0, 9575.0, 9536.0, 9529.0, 9515.0, 9502.0, 9507.0, 9513.0, 9508.0, 9505.0, 9490.0, 9501.0, 9507.0, 9502.0, 9496.0, 9508.0, 9515.0, 9509.0, 9501.0, 9506.0, 9514.0, 9527.0, 9516.0, 9515.0, 9524.0, 9522.0, 9521.0, 9524.0, 9526.0, 9544.0, 9550.0, 9548.0, 9552.0, 9571.0, 9550.0, 9553.0, 9532.0, 9527.0, 9503.0, 9501.0, 9502.0, 9508.0, 9522.0, 9540.0, 9549.0, 9543.0, 9528.0, 9532.0, 9527.0, 9526.0, 9511.0, 9517.0, 9513.0, 9494.0, 9515.0, 9521.0, 9527.0, 9523.0, 9531.0, 9552.0, 9565.0, 9575.0, 9579.0, 9586.0, 9573.0, 9562.0, 9547.0, 9537.0, 9539.0, 9529.0, 9517.0, 9516.0, 9514.0, 9505.0, 9505.0, 9501.0, 9491.0, 9486.0, 9487.0, 9495.0, 9510.0, 9507.0, 9530.0, 9533.0, 9532.0, 9522.0, 9527.0, 9524.0, 9523.0, 9514.0, 9508.0, 9512.0, 9520.0, 9509.0, 9510.0, 9520.0, 9500.0, 9504.0, 9498.0, 9510.0, 9521.0, 9532.0, 9541.0, 9533.0, 9526.0, 9524.0, 9508.0, 9505.0, 9493.0, 9504.0, 9513.0, 9520.0, 9507.0, 9498.0, 9481.0, 9477.0, 9463.0, 9475.0, 9464.0, 9470.0, 9487.0, 9503.0, 9503.0, 9495.0, 9488.0, 9481.0, 9480.0, 9471.0, 9469.0, 9469.0, 9474.0, 9460.0, 9460.0, 9469.0, 9480.0, 9489.0, 9500.0, 9486.0, 9472.0, 9478.0, 9470.0, 9468.0, 9478.0, 9496.0, 9508.0, 9523.0, 9534.0, 9544.0, 9537.0, 9527.0, 9530.0, 9515.0, 9498.0, 9495.0, 9483.0, 9489.0, 9501.0, 9494.0, 9495.0, 9481.0, 9483.0, 9471.0, 9475.0, 9470.0, 9464.0, 9469.0, 9462.0, 9472.0, 9479.0, 9475.0, 9484.0, 9483.0, 9471.0, 9485.0, 9479.0, 9478.0, 9482.0, 9477.0, 9476.0, 9464.0, 9441.0, 9478.0, 9497.0, 9498.0, 9491.0, 9497.0, 9496.0, 9479.0, 9481.0, 9467.0, 9467.0, 9469.0, 9486.0, 9496.0, 9503.0, 9493.0, 9491.0, 9483.0, 9460.0, 9469.0, 9465.0, 9473.0, 9468.0, 9469.0, 9484.0, 9487.0, 9493.0, 9492.0, 9483.0, 9493.0, 9481.0, 9478.0, 9501.0, 9495.0, 9493.0, 9485.0, 9481.0, 9473.0, 9465.0, 9470.0, 9479.0, 9473.0, 9478.0, 9481.0, 9476.0, 9479.0, 9487.0, 9492.0, 9494.0, 9496.0, 9502.0, 9497.0, 9512.0, 9514.0, 9505.0, 9502.0, 9500.0, 9466.0, 9467.0, 9452.0, 9480.0, 9511.0, 9490.0, 9479.0, 9460.0, 9444.0, 9442.0, 9442.0, 9441.0, 9431.0, 9412.0, 9387.0, 9389.0, 9390.0, 9399.0, 9402.0, 9416.0, 9418.0, 9412.0, 9426.0, 9433.0, 9457.0, 9459.0, 9461.0],
      "WindowWidth": [20468.0, 20348.0, 20265.0, 20238.0, 20212.0, 20189.0, 20196.0, 20206.0, 20198.0, 20188.0, 20157.0, 20174.0, 20187.0, 20180.0, 20169.0, 20190.0, 20204.0, 20196.0, 20179.0, 20184.0, 20201.0, 20227.0, 20209.0, 20207.0, 20225.0, 20222.0, 20220.0, 20221.0, 20225.0, 20262.0, 20271.0, 20272.0, 20286.0, 20321.0, 20280.0, 20279.0, 20239.0, 20225.0, 20178.0, 20171.0, 20174.0, 20188.0, 20217.0, 20254.0, 20272.0, 20259.0, 20227.0, 20232.0, 20226.0, 20222.0, 20194.0, 20201.0, 20193.0, 20162.0, 20200.0, 20210.0, 20220.0, 20217.0, 20232.0, 20275.0, 20310.0, 20331.0, 20340.0, 20355.0, 20327.0, 20302.0, 20271.0, 20250.0, 20249.0, 20226.0, 20203.0, 20202.0, 20195.0, 20176.0, 20172.0, 20163.0, 20141.0, 20134.0, 20140.0, 20159.0, 20188.0, 20190.0, 20234.0, 20241.0, 20239.0, 20220.0, 20227.0, 20219.0, 20214.0, 20197.0, 20188.0, 20194.0, 20210.0, 20196.0, 20196.0, 20209.0, 20173.0, 20180.0, 20171.0, 20193.0, 20217.0, 20244.0, 20260.0, 20242.0, 20228.0, 20221.0, 20192.0, 20185.0, 20174.0, 20200.0, 20218.0, 20227.0, 20200.0, 20182.0, 20147.0, 20134.0, 20108.0, 20131.0, 20115.0, 20128.0, 20162.0, 20195.0, 20194.0, 20176.0, 20160.0, 20146.0, 20144.0, 20125.0, 20119.0, 20119.0, 20127.0, 20103.0, 20104.0, 20122.0, 20149.0, 20166.0, 20183.0, 20159.0, 20131.0, 20140.0, 20124.0, 20121.0, 20141.0, 20181.0, 20213.0, 20241.0, 20265.0, 20286.0, 20272.0, 20249.0, 20248.0, 20221.0, 20183.0, 20174.0, 20155.0, 20165.0, 20186.0, 20173.0, 20178.0, 20152.0, 20150.0, 20127.0, 20133.0, 20128.0, 20114.0, 20123.0, 20109.0, 20124.0, 20135.0, 20133.0, 20153.0, 20150.0, 20131.0, 20155.0, 20146.0, 20144.0, 20148.0, 20140.0, 20136.0, 20111.0, 20065.0, 20142.0, 20185.0, 20188.0, 20173.0, 20182.0, 20177.0, 20143.0, 20140.0, 20115.0, 20114.0, 20124.0, 20158.0, 20180.0, 20193.0, 20171.0, 20163.0, 20145.0, 20101.0, 20112.0, 20110.0, 20128.0, 20123.0, 20124.0, 20152.0, 20163.0, 20173.0, 20169.0, 20151.0, 20174.0, 20145.0, 20144.0, 20186.0, 20180.0, 20172.0, 20155.0, 20150.0, 20135.0, 20118.0, 20125.0, 20143.0, 20135.0, 20143.0, 20146.0, 20136.0, 20145.0, 20163.0, 20171.0, 20176.0, 20184.0, 20192.0, 20185.0, 20214.0, 20219.0, 20200.0, 20191.0, 20181.0, 20114.0, 20115.0, 20087.0, 20149.0, 20210.0, 20168.0, 20140.0, 20100.0, 20069.0, 20061.0, 20061.0, 20056.0, 20032.0, 19990.0, 19941.0, 19941.0, 19946.0, 19965.0, 19976.0, 20002.0, 20006.0, 19997.0, 20025.0, 20045.0, 20094.0, 20101.0, 20104.0]
    },
    "slices": {}
  },
  "NumberOfVolumes": 264
}