{
  "AcquisitionMatrixPE": 104,
  "AcquisitionNumber": 1,
  "AcquisitionTime": "11:32:38.462500",
  "BandwidthPerPixelPhaseEncode": 16.578,
  "BaseResolution": 104,
  "BodyPartExamined": "BRAIN",
  "ConsistencyInfo": "N4_VE11C_LATEST_20160120",
  "ConversionSoftware": "dcm2niix",
  "ConversionSoftwareVersion": "v1.0.20190410  GCC6.3.0",
  "DerivedVendorReportedEchoSpacing": 0.000580009,
  "DeviceSerialNumber": "166018",
  "DwellTime": 2.1e-06,
  "EchoTime": 0.037,
  "EchoTrainLength": 104,
  "EffectiveEchoSpacing": 0.000580009,
  "FlipAngle": 68,
  "ImageComments": "Unaliased_MB6_PE3_LB",
  "ImageOrientationPatientDICOM": [0.999806, -0.017416, -0.00914958, 0.0150081, 0.975913, -0.217641],
  "ImageType": [
    "ORIGINAL",
    "PRIMARY",
    "M",
    "MB",
    "ND",
    "MOSAIC"
],
  "ImagingFrequency": 123.191,
  "InPlanePhaseEncodingDirectionDICOM": "COL",
  "InstitutionAddress": "Washington_Place_6_NYC_NYC_US_10003",
  "InstitutionName": "NYU_Center_for_Brain_Imaging",
  "InstitutionalDepartmentName": "Department",
  "MRAcquisitionType": "2D",
  "MagneticFieldStrength": 3,
  "Manufacturer": "Siemens",
  "ManufacturersModelName": "Prisma",
  "Modality": "MR",
  "MultibandAccelerationFactor": 6,
  "PartialFourier": 1,
  "PatientPosition": "HFS",
  "PercentPhaseFOV": 100,
  "PhaseEncodingDirection": "j",
  "PhaseEncodingSteps": 104,
  "PhaseResolution": 1,
  "PixelBandwidth": 2290,
  "ProcedureStepDescription": "Investigators_Winawer",
  "ProtocolName": "task-sfprescaled_cmrr_mbepi_s6_2mm_66sl_PA_TR1.0",
  "PulseSequenceDetails": "%CustomerSeq%_cmrr_mbep2d_bold",
  "ReceiveCoilActiveElements": "HC1-7",
  "ReceiveCoilName": "HeadNeck_64",
  "ReconMatrixPE": 104,
  "RepetitionTime": 1,
  "SAR": 0.0710762,
  "ScanOptions": "FS",
  "ScanningSequence": "EP",
  "SequenceName": "epfid2d1_104",
  "SequenceVariant": "SK_SS",
  "SeriesDescription": "task-sfprescaled_cmrr_mbepi_s6_2mm_66sl_PA_TR1.0",
  "SeriesNumber": 14,
  "ShimSetting": [279, -12606, -8449, 336, -4, -238, -109, -14],
  "SliceThickness": 2,
  "SliceTiming": [0, 0.535, 0.09, 0.625, 0.18, 0.715, 0.2675, 0.8025, 0.3575, 0.8925, 0.4475, 0, 0.535, 0.09, 0.625, 0.18, 0.715, 0.2675, 0.8025, 0.3575, 0.8925, 0.4475, 0, 0.535, 0.09, 0.625, 0.18, 0.715, 0.2675, 0.8025, 0.3575, 0.8925, 0.4475, 0, 0.535, 0.09, 0.625, 0.18, 0.715, 0.2675, 0.8025, 0.3575, 0.8925, 0.4475, 0, 0.535, 0.09, 0.625, 0.18, 0.715, 0.2675, 0.8025, 0.3575, 0.8925, 0.4475, 0, 0.535, 0.09, 0.625, 0.18, 0.715, 0.2675, 0.8025, 0.3575, 0.8925, 0.4475],
  "SoftwareVersions": "syngo_MR_E11",
  "SpacingBetweenSlices": 2,
  "StationName": "AWP166018",
  "TaskName": "sfprescaled",
  "TotalReadoutTime": 0.0597409,
  "TxRefAmp": 245.7,
  "WipMemBlock": "72863f80-38b2-4e52-a741-2bdc88044504||Sequence: R016 ve11c/master r/8780670; Nov 27 2017 15:05:12 by eja",
  "dcmmeta_affine": [
    [-1.9996129274368286, 0.030016222968697548, -0.025439279153943062, 106.42506408691406],
    [0.03483204543590546, 1.9518269300460815, -0.4349231719970703, -69.68172454833984],
    [-0.01829916052520275, 0.43528205156326294, 1.9519720077514648, -66.03307342529297],
    [0.0, 0.0, 0.0, 1.0]
],
  "dcmmeta_reorient_transform": [
    [0.0, -1.0, 0.0, 103.0],
    [1.0, 0.0, 0.0, 0.0],
    [0.0, 0.0, 1.0, 0.0],
    [0.0, 0.0, 0.0, 1.0]
],
  "dcmmeta_shape": [104, 104, 66, 264],
  "dcmmeta_slice_dim": 2,
  "dcmmeta_version": 0.6,
  "global": {
    "const": {
      "AccessionNumber": "k5rbL6p1",
      "AcquisitionMatrix": [104, 0, 0, 104],
      "AngioFlag": "N",
      "BitsAllocated": 16,
      "BitsStored": 16,
      "BodyPartExamined": "BRAIN",
      "Columns": 936,
      "EchoNumbers": 1,
      "EchoTime": 37.0,
      "EchoTrainLength": 104,
      "FlipAngle": 68.0,
      "HighBit": 15,
      "ImageOrientationPatient": [0.99980646495223, -0.0174160221162, -0.0091495799559, 0.0150081115578, 0.97591349025416, -0.2176410258371],
      "ImagePositionPatient": [-953.84246633373, -928.82634822519, 167.4907630342],
      "ImageType": [
        "ORIGINAL",
        "PRIMARY",
        "M",
        "MB",
        "ND",
        "MOSAIC"
],
      "ImagedNucleus": "1H",
      "ImagingFrequency": 123.190714,
      "InPlanePhaseEncodingDirection": "COL",
      "MRAcquisitionType": "2D",
      "MagneticFieldStrength": 3.0,
      "Manufacturer": "SIEMENS",
      "ManufacturerModelName": "Prisma",
      "Modality": "MR",
      "NumberOfAverages": 1.0,
      "NumberOfPhaseEncodingSteps": 104,
      "PercentPhaseFieldOfView": 100.0,
      "PercentSampling": 100.0,
      "PerformedProcedureStepStartTime": "111304.219000",
      "PhotometricInterpretation": "MONOCHROME2",
      "PixelBandwidth": 2290.0,
      "PixelRepresentation": 0,
      "PixelSpacing": [2.0, 2.0],
      "ProtocolName": "task-sfprescaled_cmrr_mbepi_s6_2mm_66sl_PA_TR1.0",
      "RepetitionTime": 1000.0,
      "Rows": 936,
      "SAR": 0.07107616936717,
      "SamplesPerPixel": 1,
      "ScanOptions": "FS",
      "ScanningSequence": "EP",
      "SequenceName": "epfid2d1_104",
      "SequenceVariant": [
        "SK",
        "SS"
],
      "SeriesDescription": "task-sfprescaled_cmrr_mbepi_s6_2mm_66sl_PA_TR1.0",
      "SeriesNumber": 14,
      "SeriesTime": "113345.577000",
      "SliceLocation": -50.647944165855,
      "SliceThickness": 2.0,
      "SmallestImagePixelValue": 0,
      "SoftwareVersions": "syngo MR E11",
      "SpacingBetweenSlices": 1.9999999674386,
      "SpecificCharacterSet": "ISO_IR 100",
      "StudyID": "1",
      "StudyTime": "111304.154000",
      "TransmitCoilName": "Body",
      "VariableFlipAngleFlag": "N",
      "WindowCenterWidthExplanation": "Algo1",
      "dBdt": 0.0},
    "slices": {}
  },
  "time": {
    "samples": {
      "AcquisitionNumber": [1, 2, 3, 4, 5, 6, 7, 8, 9, 10, 11, 12, 13, 14, 15, 16, 17, 18, 19, 20, 21, 22, 23, 24, 25, 26, 27, 28, 29, 30, 31, 32, 33, 34, 35, 36, 37, 38, 39, 40, 41, 42, 43, 44, 45, 46, 47, 48, 49, 50, 51, 52, 53, 54, 55, 56, 57, 58, 59, 60, 61, 62, 63, 64, 65, 66, 67, 68, 69, 70, 71, 72, 73, 74, 75, 76, 77, 78, 79, 80, 81, 82, 83, 84, 85, 86, 87, 88, 89, 90, 91, 92, 93, 94, 95, 96, 97, 98, 99, 100, 101, 102, 103, 104, 105, 106, 107, 108, 109, 110, 111, 112, 113, 114, 115, 116, 117, 118, 119, 120, 121, 122, 123, 124, 125, 126, 127, 128, 129, 130, 131, 132, 133, 134, 135, 136, 137, 138, 139, 140, 141, 142, 143, 144, 145, 146, 147, 148, 149, 150, 151, 152, 153, 154, 155, 156, 157, 158, 159, 160, 161, 162, 163, 164, 165, 166, 167, 168, 169, 170, 171, 172, 173, 174, 175, 176, 177, 178, 179, 180, 181, 182, 183, 184, 185, 186, 187, 188, 189, 190, 191, 192, 193, 194, 195, 196, 197, 198, 199, 200, 201, 202, 203, 204, 205, 206, 207, 208, 209, 210, 211, 212, 213, 214, 215, 216, 217, 218, 219, 220, 221, 222, 223, 224, 225, 226, 227, 228, 229, 230, 231, 232, 233, 234, 235, 236, 237, 238, 239, 240, 241, 242, 243, 244, 245, 246, 247, 248, 249, 250, 251, 252, 253, 254, 255, 256, 257, 258, 259, 260, 261, 262, 263, 264],
      "AcquisitionTime": ["113238.462500", "113239.462500", "113240.462500", "113241.462500", "113242.462500", "113243.462500", "113244.462500", "113245.462500", "113246.462500", "113247.462500", "113248.462500", "113249.462500", "113250.462500", "113251.462500", "113252.462500", "113253.462500", "113254.462500", "113255.462500", "113256.462500", "113257.462500", "113258.462500", "113259.462500", "113300.462500", "113301.462500", "113302.462500", "113303.462500", "113304.462500", "113305.462500", "113306.462500", "113307.462500", "113308.462500", "113309.462500", "113310.462500", "113311.462500", "113312.462500", "113313.462500", "113314.462500", "113315.462500", "113316.462500", "113317.462500", "113318.462500", "113319.462500", "113320.462500", "113321.462500", "113322.462500", "113323.462500", "113324.462500", "113325.462500", "113326.462500", "113327.462500", "113328.462500", "113329.462500", "113330.462500", "113331.462500", "113332.462500", "113333.462500", "113334.462500", "113335.462500", "113336.462500", "113337.462500", "113338.462500", "113339.462500", "113340.462500", "113341.462500", "113342.462500", "113343.462500", "113344.462500", "113345.462500", "113346.462500", "113347.462500", "113348.462500", "113349.462500", "113350.462500", "113351.462500", "113352.462500", "113353.462500", "113354.462500", "113355.462500", "113356.462500", "113357.462500", "113358.462500", "113359.462500", "113400.462500", "113401.462500", "113402.462500", "113403.462500", "113404.462500", "113405.462500", "113406.462500", "113407.462500", "113408.462500", "113409.462500", "113410.462500", "113411.462500", "113412.462500", "113413.462500", "113414.462500", "113415.462500", "113416.462500", "113417.462500", "113418.462500", "113419.462500", "113420.462500", "113421.462500", "113422.462500", "113423.462500", "113424.462500", "113425.462500", "113426.462500", "113427.462500", "113428.462500", "113429.462500", "113430.462500", "113431.462500", "113432.462500", "113433.462500", "113434.462500", "113435.462500", "113436.462500", "113437.462500", "113438.462500", "113439.462500", "113440.462500", "113441.462500", "113442.462500", "113443.462500", "113444.462500", "113445.462500", "113446.462500", "113447.462500", "113448.462500", "113449.462500", "113450.462500", "113451.462500", "113452.462500", "113453.462500", "113454.462500", "113455.462500", "113456.462500", "113457.462500", "113458.462500", "113459.462500", "113500.462500", "113501.462500", "113502.462500", "113503.462500", "113504.462500", "113505.462500", "113506.462500", "113507.462500", "113508.462500", "113509.462500", "113510.462500", "113511.462500", "113512.462500", "113513.462500", "113514.462500", "113515.462500", "113516.462500", "113517.462500", "113518.462500", "113519.462500", "113520.462500", "113521.462500", "113522.462500", "113523.462500", "113524.462500", "113525.462500", "113526.462500", "113527.462500", "113528.462500", "113529.462500", "113530.462500", "113531.462500", "113532.462500", "113533.462500", "113534.462500", "113535.462500", "113536.462500", "113537.462500", "113538.462500", "113539.462500", "113540.462500", "113541.462500", "113542.462500", "113543.462500", "113544.462500", "113545.462500", "113546.462500", "113547.462500", "113548.462500", "113549.462500", "113550.462500", "113551.462500", "113552.462500", "113553.462500", "113554.462500", "113555.462500", "113556.462500", "113557.462500", "113558.462500", "113559.462500", "113600.462500", "113601.462500", "113602.462500", "113603.462500", "113604.462500", "113605.462500", "113606.462500", "113607.462500", "113608.462500", "113609.462500", "113610.462500", "113611.462500", "113612.462500", "113613.462500", "113614.462500", "113615.462500", "113616.462500", "113617.462500", "113618.462500", "113619.462500", "113620.462500", "113621.462500", "113622.462500", "113623.462500", "113624.462500", "113625.462500", "113626.462500", "113627.462500", "113628.462500", "113629.462500", "113630.462500", "113631.462500", "113632.462500", "113633.462500", "113634.462500", "113635.462500", "113636.462500", "113637.462500", "113638.462500", "113639.462500", "113640.462500", "113641.462500", "113642.462500", "113643.462500", "113644.462500", "113645.462500", "113646.462500", "113647.462500", "113648.462500", "113649.462500", "113650.462500", "113651.462500", "113652.462500", "113653.462500", "113654.462500", "113655.462500", "113656.462500", "113657.462500", "113658.462500", "113659.462500", "113700.462500", "113701.462500"],
      "ContentTime": ["113345.580000", "113345.583000", "113345.586000", "113345.589000", "113345.592000", "113345.595000", "113345.598000", "113345.601000", "113345.604000", "113345.606000", "113345.609000", "113345.612000", "113345.615000", "113345.618000", "113345.625000", "113345.628000", "113345.636000", "113345.639000", "113345.642000", "113345.645000", "113345.648000", "113345.651000", "113345.654000", "113405.552000", "113405.555000", "113405.558000", "113405.561000", "113405.564000", "113405.575000", "113405.577000", "113405.580000", "113405.583000", "113405.586000", "113405.589000", "113405.592000", "113405.595000", "113405.598000", "113405.600000", "113405.603000", "113405.606000", "113405.609000", "113405.612000", "113405.615000", "113405.618000", "113405.621000", "113405.623000", "113405.626000", "113405.629000", "113405.632000", "113405.635000", "113405.638000", "113425.551000", "113425.554000", "113425.557000", "113425.560000", "113425.563000", "113425.566000", "113425.568000", "113425.571000", "113425.574000", "113425.577000", "113425.580000", "113425.583000", "113425.586000", "113425.588000", "113425.591000", "113425.637000", "113425.640000", "113425.643000", "113425.646000", "113425.649000", "113425.652000", "113425.655000", "113425.657000", "113425.660000", "113425.663000", "113425.666000", "113425.669000", "113425.672000", "113425.675000", "113445.551000", "113445.554000", "113445.557000", "113445.560000", "113445.563000", "113445.565000", "113445.568000", "113445.571000", "113445.574000", "113445.577000", "113445.580000", "113445.583000", "113445.585000", "113445.588000", "113445.591000", "113445.594000", "113445.597000", "113445.600000", "113445.615000", "113445.617000", "113445.620000", "113445.623000", "113445.626000", "113445.629000", "113445.632000", "113445.635000", "113445.638000", "113445.640000", "113505.551000", "113505.554000", "113505.557000", "113505.573000", "113505.576000", "113505.578000", "113505.581000", "113505.584000", "113505.587000", "113505.590000", "113505.593000", "113505.596000", "113505.599000", "113505.601000", "113505.604000", "113505.607000", "113505.610000", "113505.613000", "113505.616000", "113505.619000", "113505.622000", "113505.625000", "113505.627000", "113505.630000", "113505.633000", "113505.636000", "113505.639000", "113505.642000", "113525.551000", "113525.554000", "113525.557000", "113525.560000", "113525.563000", "113525.566000", "113525.568000", "113525.571000", "113525.574000", "113525.577000", "113525.580000", "113525.583000", "113525.586000", "113525.589000", "113525.592000", "113525.594000", "113525.597000", "113525.600000", "113525.603000", "113525.606000", "113525.609000", "113525.612000", "113525.615000", "113525.617000", "113525.620000", "113525.623000", "113525.626000", "113525.629000", "113525.632000", "113545.552000", "113545.555000", "113545.558000", "113545.561000", "113545.564000", "113545.567000", "113545.569000", "113545.572000", "113545.575000", "113545.578000", "113545.581000", "113545.585000", "113545.588000", "113545.590000", "113545.593000", "113545.596000", "113545.599000", "113545.602000", "113545.605000", "113545.608000", "113545.611000", "113605.552000", "113605.555000", "113605.558000", "113605.561000", "113605.564000", "113605.567000", "113605.570000", "113605.573000", "113605.575000", "113605.578000", "113605.581000", "113605.584000", "113605.587000", "113605.591000", "113605.595000", "113605.598000", "113605.601000", "113605.604000", "113605.607000", "113605.610000", "113625.552000", "113625.555000", "113625.558000", "113625.561000", "113625.564000", "113625.567000", "113625.570000", "113625.573000", "113625.576000", "113625.579000", "113625.582000", "113625.585000", "113625.588000", "113625.591000", "113625.593000", "113625.596000", "113625.599000", "113625.602000", "113625.605000", "113625.608000", "113645.551000", "113645.554000", "113645.557000", "113645.560000", "113645.563000", "113645.566000", "113645.569000", "113645.571000", "113645.574000", "113645.578000", "113645.581000", "113645.584000", "113645.587000", "113645.591000", "113645.594000", "113645.597000", "113645.599000", "113645.602000", "113645.605000", "113645.608000", "113702.652000", "113702.656000", "113702.660000", "113702.663000", "113702.667000", "113702.670000", "113702.673000", "113702.676000", "113702.679000", "113702.683000", "113702.698000", "113702.702000", "113702.709000", "113702.712000", "113702.717000", "113702.720000", "113702.723000", "113702.726000"],
      "InstanceCreationTime": ["113345.580000", "113345.583000", "113345.586000", "113345.589000", "113345.592000", "113345.595000", "113345.598000", "113345.601000", "113345.604000", "113345.606000", "113345.609000", "113345.612000", "113345.615000", "113345.618000", "113345.625000", "113345.628000", "113345.636000", "113345.639000", "113345.642000", "113345.645000", "113345.648000", "113345.651000", "113345.654000", "113405.552000", "113405.555000", "113405.558000", "113405.561000", "113405.564000", "113405.575000", "113405.577000", "113405.580000", "113405.583000", "113405.586000", "113405.589000", "113405.592000", "113405.595000", "113405.598000", "113405.600000", "113405.603000", "113405.606000", "113405.609000", "113405.612000", "113405.615000", "113405.618000", "113405.621000", "113405.623000", "113405.626000", "113405.629000", "113405.632000", "113405.635000", "113405.638000", "113425.551000", "113425.554000", "113425.557000", "113425.560000", "113425.563000", "113425.566000", "113425.568000", "113425.571000", "113425.574000", "113425.577000", "113425.580000", "113425.583000", "113425.586000", "113425.588000", "113425.591000", "113425.637000", "113425.640000", "113425.643000", "113425.646000", "113425.649000", "113425.652000", "113425.655000", "113425.657000", "113425.660000", "113425.663000", "113425.666000", "113425.669000", "113425.672000", "113425.675000", "113445.551000", "113445.554000", "113445.557000", "113445.560000", "113445.563000", "113445.565000", "113445.568000", "113445.571000", "113445.574000", "113445.577000", "113445.580000", "113445.583000", "113445.585000", "113445.588000", "113445.591000", "113445.594000", "113445.597000", "113445.600000", "113445.615000", "113445.617000", "113445.620000", "113445.623000", "113445.626000", "113445.629000", "113445.632000", "113445.635000", "113445.638000", "113445.640000", "113505.551000", "113505.554000", "113505.557000", "113505.573000", "113505.576000", "113505.578000", "113505.581000", "113505.584000", "113505.587000", "113505.590000", "113505.593000", "113505.596000", "113505.599000", "113505.601000", "113505.604000", "113505.607000", "113505.610000", "113505.613000", "113505.616000", "113505.619000", "113505.622000", "113505.625000", "113505.627000", "113505.630000", "113505.633000", "113505.636000", "113505.639000", "113505.642000", "113525.551000", "113525.554000", "113525.557000", "113525.560000", "113525.563000", "113525.566000", "113525.568000", "113525.571000", "113525.574000", "113525.577000", "113525.580000", "113525.583000", "113525.586000", "113525.589000", "113525.592000", "113525.594000", "113525.597000", "113525.600000", "113525.603000", "113525.606000", "113525.609000", "113525.612000", "113525.615000", "113525.617000", "113525.620000", "113525.623000", "113525.626000", "113525.629000", "113525.632000", "113545.552000", "113545.555000", "113545.558000", "113545.561000", "113545.564000", "113545.567000", "113545.569000", "113545.572000", "113545.575000", "113545.578000", "113545.581000", "113545.585000", "113545.588000", "113545.590000", "113545.593000", "113545.596000", "113545.599000", "113545.602000", "113545.605000", "113545.608000", "113545.611000", "113605.552000", "113605.555000", "113605.558000", "113605.561000", "113605.564000", "113605.567000", "113605.570000", "113605.573000", "113605.575000", "113605.578000", "113605.581000", "113605.584000", "113605.587000", "113605.591000", "113605.595000", "113605.598000", "113605.601000", "113605.604000", "113605.607000", "113605.610000", "113625.552000", "113625.555000", "113625.558000", "113625.561000", "113625.564000", "113625.567000", "113625.570000", "113625.573000", "113625.576000", "113625.579000", "113625.582000", "113625.585000", "113625.588000", "113625.591000", "113625.593000", "113625.596000", "113625.599000", "113625.602000", "113625.605000", "113625.608000", "113645.551000", "113645.554000", "113645.557000", "113645.560000", "113645.563000", "113645.566000", "113645.569000", "113645.571000", "113645.574000", "113645.578000", "113645.581000", "113645.584000", "113645.587000", "113645.591000", "113645.594000", "113645.597000", "113645.599000", "113645.602000", "113645.605000", "113645.608000", "113702.652000", "113702.656000", "113702.660000", "113702.663000", "113702.667000", "113702.670000", "113702.673000", "113702.676000", "113702.679000", "113702.683000", "113702.698000", "113702.702000", "113702.709000", "113702.712000", "113702.717000", "113702.720000", "113702.723000", "113702.726000"],
      "InstanceNumber": [1, 2, 3, 4, 5, 6, 7, 8, 9, 10, 11, 12, 13, 14, 15, 16, 17, 18, 19, 20, 21, 22, 23, 24, 25, 26, 27, 28, 29, 30, 31, 32, 33, 34, 35, 36, 37, 38, 39, 40, 41, 42, 43, 44, 45, 46, 47, 48, 49, 50, 51, 52, 53, 54, 55, 56, 57, 58, 59, 60, 61, 62, 63, 64, 65, 66, 67, 68, 69, 70, 71, 72, 73, 74, 75, 76, 77, 78, 79, 80, 81, 82, 83, 84, 85, 86, 87, 88, 89, 90, 91, 92, 93, 94, 95, 96, 97, 98, 99, 100, 101, 102, 103, 104, 105, 106, 107, 108, 109, 110, 111, 112, 113, 114, 115, 116, 117, 118, 119, 120, 121, 122, 123, 124, 125, 126, 127, 128, 129, 130, 131, 132, 133, 134, 135, 136, 137, 138, 139, 140, 141, 142, 143, 144, 145, 146, 147, 148, 149, 150, 151, 152, 153, 154, 155, 156, 157, 158, 159, 160, 161, 162, 163, 164, 165, 166, 167, 168, 169, 170, 171, 172, 173, 174, 175, 176, 177, 178, 179, 180, 181, 182, 183, 184, 185, 186, 187, 188, 189, 190, 191, 192, 193, 194, 195, 196, 197, 198, 199, 200, 201, 202, 203, 204, 205, 206, 207, 208, 209, 210, 211, 212, 213, 214, 215, 216, 217, 218, 219, 220, 221, 222, 223, 224, 225, 226, 227, 228, 229, 230, 231, 232, 233, 234, 235, 236, 237, 238, 239, 240, 241, 242, 243, 244, 245, 246, 247, 248, 249, 250, 251, 252, 253, 254, 255, 256, 257, 258, 259, 260, 261, 262, 263, 264],
      "LargestImagePixelValue": [33071, 32335, 31619, 31137, 31904, 31466, 31231, 31193, 31660, 31737, 30921, 31141, 31055, 30833, 30985, 31262, 31198, 31238, 31595, 31156, 31466, 31119, 31215, 31170, 30792, 31227, 31012, 31370, 31806, 32086, 31986, 32768, 32332, 33979, 32379, 32607, 32760, 33489, 32490, 32943, 32620, 33866, 32530, 32749, 33002, 33607, 32403, 32834, 32439, 34214, 33059, 33380, 33345, 34179, 34526, 33488, 34145, 34061, 33663, 33131, 33094, 33880, 34516, 33014, 33939, 34112, 33996, 34082, 33901, 34042, 33501, 33589, 33685, 33301, 33568, 33781, 33543, 33632, 33549, 33540, 34064, 33187, 33249, 33239, 33277, 33406, 33635, 33806, 34193, 33628, 33597, 33938, 33924, 33380, 33204, 34035, 33441, 33818, 32756, 33672, 33315, 33667, 33234, 33603, 33387, 33327, 32852, 33274, 33981, 33523, 33708, 33468, 33553, 33929, 33842, 33780, 33696, 34012, 33612, 33441, 33455, 33480, 33548, 32677, 33696, 33893, 33525, 33069, 33407, 33581, 33996, 33578, 33318, 33783, 33925, 33806, 33453, 33173, 33461, 33738, 32812, 33481, 33686, 34034, 33151, 33266, 33119, 33577, 33332, 33221, 33252, 33386, 33319, 32941, 33196, 32925, 33670, 33025, 33122, 33312, 33045, 32788, 33065, 33674, 33067, 32465, 33452, 33410, 33561, 33248, 33300, 33133, 32908, 33230, 33207, 33529, 32876, 32962, 33269, 33585, 32805, 33214, 33110, 33742, 33346, 33554, 33863, 33818, 32964, 33255, 33137, 33393, 33005, 32848, 33011, 33715, 32280, 32713, 33158, 32739, 32747, 32680, 33097, 33606, 32979, 32583, 32973, 33416, 32765, 32573, 32940, 33299, 33105, 32629, 33367, 33188, 32762, 32683, 32898, 33589, 32849, 32582, 32946, 32526, 32863, 32410, 32880, 32461, 32369, 32281, 32558, 32795, 33124, 32554, 32788, 33337, 32417, 32660, 32908, 32948, 32358, 32648, 32534, 32833, 32466, 32901, 33219, 32791, 32359, 32598, 33040, 33031, 32304, 32481, 32532, 32973, 32060, 32344, 32983, 33121, 31885, 32447, 32731, 33030],
      "WindowCenter": [9544.0, 9518.0, 9502.0, 9488.0, 9489.0, 9473.0, 9471.0, 9466.0, 9470.0, 9460.0, 9447.0, 9457.0, 9473.0, 9470.0, 9477.0, 9476.0, 9459.0, 9454.0, 9455.0, 9457.0, 9464.0, 9457.0, 9464.0, 9466.0, 9460.0, 9473.0, 9469.0, 9482.0, 9487.0, 9485.0, 9478.0, 9489.0, 9482.0, 9504.0, 9482.0, 9499.0, 9513.0, 9518.0, 9507.0, 9506.0, 9499.0, 9508.0, 9491.0, 9497.0, 9497.0, 9510.0, 9502.0, 9515.0, 9501.0, 9524.0, 9512.0, 9512.0, 9513.0, 9522.0, 9520.0, 9507.0, 9513.0, 9514.0, 9515.0, 9510.0, 9504.0, 9506.0, 9503.0, 9484.0, 9496.0, 9509.0, 9497.0, 9502.0, 9495.0, 9488.0, 9480.0, 9478.0, 9487.0, 9491.0, 9516.0, 9515.0, 9515.0, 9516.0, 9509.0, 9499.0, 9496.0, 9478.0, 9491.0, 9492.0, 9494.0, 9502.0, 9510.0, 9509.0, 9512.0, 9499.0, 9497.0, 9484.0, 9494.0, 9501.0, 9509.0, 9509.0, 9491.0, 9489.0, 9463.0, 9487.0, 9482.0, 9489.0, 9483.0, 9497.0, 9491.0, 9493.0, 9487.0, 9492.0, 9496.0, 9481.0, 9480.0, 9479.0, 9479.0, 9485.0, 9494.0, 9504.0, 9506.0, 9506.0, 9498.0, 9483.0, 9479.0, 9463.0, 9462.0, 9451.0, 9476.0, 9485.0, 9488.0, 9483.0, 9483.0, 9490.0, 9487.0, 9474.0, 9475.0, 9494.0, 9495.0, 9503.0, 9501.0, 9502.0, 9500.0, 9497.0, 9485.0, 9491.0, 9498.0, 9503.0, 9500.0, 9503.0, 9505.0, 9510.0, 9503.0, 9495.0, 9494.0, 9485.0, 9484.0, 9485.0, 9491.0, 9492.0, 9499.0, 9487.0, 9493.0, 9495.0, 9496.0, 9498.0, 9504.0, 9503.0, 9495.0, 9482.0, 9498.0, 9491.0, 9490.0, 9492.0, 9490.0, 9501.0, 9495.0, 9501.0, 9492.0, 9481.0, 9474.0, 9475.0, 9475.0, 9480.0, 9475.0, 9482.0, 9476.0, 9495.0, 9492.0, 9498.0, 9496.0, 9487.0, 9468.0, 9465.0, 9463.0, 9456.0, 9458.0, 9466.0, 9476.0, 9498.0, 9484.0, 9491.0, 9495.0, 9482.0, 9490.0, 9498.0, 9510.0, 9509.0, 9502.0, 9490.0, 9494.0, 9486.0, 9480.0, 9472.0, 9476.0, 9483.0, 9483.0, 9471.0, 9482.0, 9475.0, 9463.0, 9462.0, 9466.0, 9479.0, 9481.0, 9485.0, 9493.0, 9480.0, 9485.0, 9474.0, 9485.0, 9473.0, 9480.0, 9481.0, 9488.0, 9487.0, 9492.0, 9479.0, 9472.0, 9475.0, 9457.0, 9468.0, 9475.0, 9485.0, 9490.0, 9490.0, 9489.0, 9489.0, 9475.0, 9477.0, 9473.0, 9468.0, 9463.0, 9471.0, 9470.0, 9468.0, 9472.0, 9487.0, 9496.0, 9497.0, 9486.0, 9484.0, 9486.0, 9484.0, 9466.0, 9472.0, 9478.0, 9478.0],
      "WindowWidth": [20313.0, 20244.0, 20207.0, 20173.0, 20164.0, 20130.0, 20126.0, 20117.0, 20119.0, 20096.0, 20076.0, 20101.0, 20133.0, 20130.0, 20143.0, 20136.0, 20102.0, 20085.0, 20089.0, 20100.0, 20111.0, 20098.0, 20110.0, 20117.0, 20109.0, 20130.0, 20124.0, 20148.0, 20156.0, 20147.0, 20136.0, 20152.0, 20140.0, 20177.0, 20144.0, 20177.0, 20206.0, 20211.0, 20193.0, 20193.0, 20179.0, 20191.0, 20162.0, 20173.0, 20173.0, 20198.0, 20189.0, 20213.0, 20188.0, 20223.0, 20200.0, 20201.0, 20204.0, 20216.0, 20208.0, 20186.0, 20197.0, 20200.0, 20201.0, 20194.0, 20180.0, 20177.0, 20167.0, 20134.0, 20155.0, 20178.0, 20157.0, 20164.0, 20152.0, 20137.0, 20122.0, 20118.0, 20136.0, 20151.0, 20204.0, 20200.0, 20198.0, 20199.0, 20188.0, 20167.0, 20158.0, 20126.0, 20150.0, 20155.0, 20160.0, 20177.0, 20195.0, 20190.0, 20189.0, 20165.0, 20159.0, 20129.0, 20149.0, 20171.0, 20188.0, 20184.0, 20147.0, 20138.0, 20094.0, 20137.0, 20129.0, 20141.0, 20131.0, 20158.0, 20151.0, 20154.0, 20144.0, 20152.0, 20153.0, 20126.0, 20120.0, 20118.0, 20120.0, 20129.0, 20149.0, 20173.0, 20178.0, 20175.0, 20160.0, 20129.0, 20116.0, 20084.0, 20081.0, 20069.0, 20111.0, 20129.0, 20139.0, 20131.0, 20132.0, 20142.0, 20134.0, 20110.0, 20114.0, 20151.0, 20154.0, 20168.0, 20169.0, 20173.0, 20167.0, 20157.0, 20137.0, 20149.0, 20163.0, 20170.0, 20170.0, 20180.0, 20185.0, 20192.0, 20176.0, 20160.0, 20156.0, 20138.0, 20135.0, 20140.0, 20152.0, 20154.0, 20165.0, 20144.0, 20154.0, 20160.0, 20164.0, 20170.0, 20180.0, 20175.0, 20159.0, 20137.0, 20161.0, 20147.0, 20144.0, 20150.0, 20145.0, 20170.0, 20159.0, 20169.0, 20148.0, 20124.0, 20112.0, 20117.0, 20116.0, 20123.0, 20115.0, 20129.0, 20120.0, 20152.0, 20150.0, 20161.0, 20155.0, 20135.0, 20099.0, 20091.0, 20084.0, 20073.0, 20079.0, 20098.0, 20121.0, 20162.0, 20144.0, 20157.0, 20160.0, 20136.0, 20153.0, 20172.0, 20191.0, 20184.0, 20173.0, 20151.0, 20155.0, 20140.0, 20127.0, 20111.0, 20117.0, 20129.0, 20131.0, 20112.0, 20126.0, 20113.0, 20093.0, 20091.0, 20096.0, 20118.0, 20126.0, 20138.0, 20152.0, 20129.0, 20134.0, 20116.0, 20136.0, 20116.0, 20127.0, 20131.0, 20145.0, 20143.0, 20148.0, 20127.0, 20112.0, 20115.0, 20083.0, 20103.0, 20118.0, 20139.0, 20154.0, 20154.0, 20149.0, 20148.0, 20121.0, 20120.0, 20109.0, 20102.0, 20098.0, 20112.0, 20108.0, 20103.0, 20116.0, 20149.0, 20168.0, 20167.0, 20151.0, 20143.0, 20139.0, 20132.0, 20104.0, 20114.0, 20122.0, 20120.0]
    },
    "slices": {}
  },
  "NumberOfVolumes": 264
}