{
  "AcquisitionMatrixPE": 104,
  "AcquisitionNumber": 1,
  "AcquisitionTime": "16:09:37.507500",
  "BandwidthPerPixelPhaseEncode": 16.578,
  "BaseResolution": 104,
  "BodyPartExamined": "BRAIN",
  "ConsistencyInfo": "N4_VE11C_LATEST_20160120",
  "ConversionSoftware": "dcm2niix",
  "ConversionSoftwareVersion": "v1.0.20190410  GCC6.3.0",
  "DerivedVendorReportedEchoSpacing": 0.000580009,
  "DeviceSerialNumber": "166018",
  "DwellTime": 2.1e-06,
  "EchoTime": 0.037,
  "EchoTrainLength": 104,
  "EffectiveEchoSpacing": 0.000580009,
  "FlipAngle": 68,
  "ImageComments": "Unaliased_MB6_PE3_LB",
  "ImageOrientationPatientDICOM": [0.999403, 0.0342904, 0.00416753, -0.0324551, 0.973451, -0.226581],
  "ImageType": [
    "ORIGINAL",
    "PRIMARY",
    "M",
    "MB",
    "ND",
    "MOSAIC"
],
  "ImagingFrequency": 123.191,
  "InPlanePhaseEncodingDirectionDICOM": "COL",
  "InstitutionAddress": "Washington_Place_6_NYC_NYC_US_10003",
  "InstitutionName": "NYU_-_CBI",
  "InstitutionalDepartmentName": "Department",
  "MRAcquisitionType": "2D",
  "MagneticFieldStrength": 3,
  "Manufacturer": "Siemens",
  "ManufacturersModelName": "Prisma",
  "Modality": "MR",
  "MultibandAccelerationFactor": 6,
  "PartialFourier": 1,
  "PatientPosition": "HFS",
  "PercentPhaseFOV": 100,
  "PhaseEncodingDirection": "j",
  "PhaseEncodingSteps": 104,
  "PhaseResolution": 1,
  "PixelBandwidth": 2290,
  "ProcedureStepDescription": "Investigators_Winawer",
  "ProtocolName": "task-sfprescaled_cmrr_mbepi_s6_2mm_66sl_PA_TR1.0",
  "PulseSequenceDetails": "%CustomerSeq%_cmrr_mbep2d_bold",
  "ReceiveCoilActiveElements": "HC1-7",
  "ReceiveCoilName": "HeadNeck_64",
  "ReconMatrixPE": 104,
  "RepetitionTime": 1,
  "SAR": 0.0720179,
  "ScanOptions": "FS",
  "ScanningSequence": "EP",
  "SequenceName": "epfid2d1_104",
  "SequenceVariant": "SK_SS",
  "SeriesDescription": "task-sfprescaled_cmrr_mbepi_s6_2mm_66sl_PA_TR1.0",
  "SeriesNumber": 20,
  "ShimSetting": [251, -12599, -8434, 396, -51, -72, -50, -8],
  "SliceThickness": 2,
  "SliceTiming": [0, 0.5325, 0.0875, 0.6225, 0.1775, 0.7125, 0.2675, 0.8, 0.355, 0.89, 0.445, 0, 0.5325, 0.0875, 0.6225, 0.1775, 0.7125, 0.2675, 0.8, 0.355, 0.89, 0.445, 0, 0.5325, 0.0875, 0.6225, 0.1775, 0.7125, 0.2675, 0.8, 0.355, 0.89, 0.445, 0, 0.5325, 0.0875, 0.6225, 0.1775, 0.7125, 0.2675, 0.8, 0.355, 0.89, 0.445, 0, 0.5325, 0.0875, 0.6225, 0.1775, 0.7125, 0.2675, 0.8, 0.355, 0.89, 0.445, 0, 0.5325, 0.0875, 0.6225, 0.1775, 0.7125, 0.2675, 0.8, 0.355, 0.89, 0.445],
  "SoftwareVersions": "syngo_MR_E11",
  "SpacingBetweenSlices": 2,
  "StationName": "AWP166018",
  "TaskName": "sfprescaled",
  "TotalReadoutTime": 0.0597409,
  "TxRefAmp": 249.599,
  "WipMemBlock": "aba3b49b-1270-4050-a1a2-8a36a547e145||Sequence: R016 ve11c/master r/8780670; Nov 27 2017 15:05:12 by eja",
  "dcmmeta_affine": [
    [-1.9988064765930176, -0.06491026282310486, 0.02365286834537983, 111.34695434570312],
    [-0.06858080625534058, 1.9469029903411865, -0.45262065529823303, -66.66215515136719],
    [0.008335058577358723, 0.4531616270542145, 1.9479668140411377, -76.0469741821289],
    [0.0, 0.0, 0.0, 1.0]
],
  "dcmmeta_reorient_transform": [
    [0.0, -1.0, 0.0, 103.0],
    [1.0, 0.0, 0.0, 0.0],
    [0.0, 0.0, 1.0, 0.0],
    [0.0, 0.0, 0.0, 1.0]
],
  "dcmmeta_shape": [104, 104, 66, 264],
  "dcmmeta_slice_dim": 2,
  "dcmmeta_version": 0.6,
  "global": {
    "const": {
      "AccessionNumber": "k5oeerc6",
      "AcquisitionMatrix": [104, 0, 0, 104],
      "AngioFlag": "N",
      "BitsAllocated": 16,
      "BitsStored": 16,
      "BodyPartExamined": "BRAIN",
      "Columns": 936,
      "EchoNumbers": 1,
      "EchoTime": 37.0,
      "EchoTrainLength": 104,
      "FlipAngle": 68.0,
      "HighBit": 15,
      "ImageOrientationPatient": [0.99940322193055, 0.03429040237546, 0.00416752921482, -0.0324551295973, 0.97345148859879, -0.2265808109872],
      "ImagePositionPatient": [-909.16201338096, -972.31010395215, 155.67652003242],
      "ImageType": [
        "ORIGINAL",
        "PRIMARY",
        "M",
        "MB",
        "ND",
        "MOSAIC"
],
      "ImagedNucleus": "1H",
      "ImagingFrequency": 123.190725,
      "InPlanePhaseEncodingDirection": "COL",
      "MRAcquisitionType": "2D",
      "MagneticFieldStrength": 3.0,
      "Manufacturer": "SIEMENS",
      "ManufacturerModelName": "Prisma",
      "Modality": "MR",
      "NumberOfAverages": 1.0,
      "NumberOfPhaseEncodingSteps": 104,
      "PercentPhaseFieldOfView": 100.0,
      "PercentSampling": 100.0,
      "PerformedProcedureStepStartTime": "153551.925000",
      "PhotometricInterpretation": "MONOCHROME2",
      "PixelBandwidth": 2290.0,
      "PixelRepresentation": 0,
      "PixelSpacing": [2.0, 2.0],
      "ProtocolName": "task-sfprescaled_cmrr_mbepi_s6_2mm_66sl_PA_TR1.0",
      "RepetitionTime": 1000.0,
      "Rows": 936,
      "SAR": 0.07201794662423,
      "SamplesPerPixel": 1,
      "ScanOptions": "FS",
      "ScanningSequence": "EP",
      "SequenceName": "epfid2d1_104",
      "SequenceVariant": [
        "SK",
        "SS"
],
      "SeriesDescription": "task-sfprescaled_cmrr_mbepi_s6_2mm_66sl_PA_TR1.0",
      "SeriesNumber": 20,
      "SeriesTime": "161101.808000",
      "SliceLocation": -57.665325382993,
      "SliceThickness": 2.0,
      "SmallestImagePixelValue": 0,
      "SoftwareVersions": "syngo MR E11",
      "SpacingBetweenSlices": 1.999999922841,
      "SpecificCharacterSet": "ISO_IR 100",
      "StudyID": "1",
      "StudyTime": "153551.820000",
      "TransmitCoilName": "Body",
      "VariableFlipAngleFlag": "N",
      "WindowCenterWidthExplanation": "Algo1",
      "dBdt": 0.0},
    "slices": {}
  },
  "time": {
    "samples": {
      "AcquisitionNumber": [1, 2, 3, 4, 5, 6, 7, 8, 9, 10, 11, 12, 13, 14, 15, 16, 17, 18, 19, 20, 21, 22, 23, 24, 25, 26, 27, 28, 29, 30, 31, 32, 33, 34, 35, 36, 37, 38, 39, 40, 41, 42, 43, 44, 45, 46, 47, 48, 49, 50, 51, 52, 53, 54, 55, 56, 57, 58, 59, 60, 61, 62, 63, 64, 65, 66, 67, 68, 69, 70, 71, 72, 73, 74, 75, 76, 77, 78, 79, 80, 81, 82, 83, 84, 85, 86, 87, 88, 89, 90, 91, 92, 93, 94, 95, 96, 97, 98, 99, 100, 101, 102, 103, 104, 105, 106, 107, 108, 109, 110, 111, 112, 113, 114, 115, 116, 117, 118, 119, 120, 121, 122, 123, 124, 125, 126, 127, 128, 129, 130, 131, 132, 133, 134, 135, 136, 137, 138, 139, 140, 141, 142, 143, 144, 145, 146, 147, 148, 149, 150, 151, 152, 153, 154, 155, 156, 157, 158, 159, 160, 161, 162, 163, 164, 165, 166, 167, 168, 169, 170, 171, 172, 173, 174, 175, 176, 177, 178, 179, 180, 181, 182, 183, 184, 185, 186, 187, 188, 189, 190, 191, 192, 193, 194, 195, 196, 197, 198, 199, 200, 201, 202, 203, 204, 205, 206, 207, 208, 209, 210, 211, 212, 213, 214, 215, 216, 217, 218, 219, 220, 221, 222, 223, 224, 225, 226, 227, 228, 229, 230, 231, 232, 233, 234, 235, 236, 237, 238, 239, 240, 241, 242, 243, 244, 245, 246, 247, 248, 249, 250, 251, 252, 253, 254, 255, 256, 257, 258, 259, 260, 261, 262, 263, 264],
      "AcquisitionTime": ["160937.507500", "160938.507500", "160939.507500", "160940.507500", "160941.507500", "160942.507500", "160943.507500", "160944.507500", "160945.507500", "160946.507500", "160947.507500", "160948.507500", "160949.507500", "160950.507500", "160951.507500", "160952.507500", "160953.507500", "160954.507500", "160955.507500", "160956.507500", "160957.507500", "160958.507500", "160959.507500", "161000.507500", "161001.507500", "161002.507500", "161003.507500", "161004.507500", "161005.507500", "161006.507500", "161007.507500", "161008.507500", "161009.507500", "161010.507500", "161011.507500", "161012.507500", "161013.507500", "161014.507500", "161015.507500", "161016.507500", "161017.507500", "161018.507500", "161019.507500", "161020.507500", "161021.507500", "161022.507500", "161023.507500", "161024.507500", "161025.507500", "161026.507500", "161027.507500", "161028.507500", "161029.507500", "161030.507500", "161031.507500", "161032.507500", "161033.507500", "161034.507500", "161035.507500", "161036.507500", "161037.507500", "161038.507500", "161039.507500", "161040.507500", "161041.507500", "161042.507500", "161043.507500", "161044.507500", "161045.507500", "161046.507500", "161047.507500", "161048.507500", "161049.507500", "161050.507500", "161051.507500", "161052.507500", "161053.507500", "161054.507500", "161055.507500", "161056.507500", "161057.507500", "161058.507500", "161059.507500", "161100.507500", "161101.507500", "161102.507500", "161103.507500", "161104.507500", "161105.507500", "161106.507500", "161107.507500", "161108.507500", "161109.507500", "161110.507500", "161111.507500", "161112.507500", "161113.507500", "161114.507500", "161115.507500", "161116.507500", "161117.507500", "161118.507500", "161119.507500", "161120.507500", "161121.507500", "161122.507500", "161123.507500", "161124.507500", "161125.507500", "161126.507500", "161127.507500", "161128.507500", "161129.507500", "161130.507500", "161131.507500", "161132.507500", "161133.507500", "161134.507500", "161135.507500", "161136.507500", "161137.507500", "161138.507500", "161139.507500", "161140.507500", "161141.507500", "161142.507500", "161143.507500", "161144.507500", "161145.507500", "161146.507500", "161147.507500", "161148.507500", "161149.507500", "161150.507500", "161151.507500", "161152.507500", "161153.507500", "161154.507500", "161155.507500", "161156.507500", "161157.507500", "161158.507500", "161159.507500", "161200.507500", "161201.507500", "161202.507500", "161203.507500", "161204.507500", "161205.507500", "161206.507500", "161207.507500", "161208.507500", "161209.507500", "161210.507500", "161211.507500", "161212.507500", "161213.507500", "161214.507500", "161215.507500", "161216.507500", "161217.507500", "161218.507500", "161219.507500", "161220.507500", "161221.507500", "161222.507500", "161223.507500", "161224.507500", "161225.507500", "161226.507500", "161227.507500", "161228.507500", "161229.507500", "161230.507500", "161231.507500", "161232.507500", "161233.507500", "161234.507500", "161235.507500", "161236.507500", "161237.507500", "161238.507500", "161239.507500", "161240.507500", "161241.507500", "161242.507500", "161243.507500", "161244.507500", "161245.507500", "161246.507500", "161247.507500", "161248.507500", "161249.507500", "161250.507500", "161251.507500", "161252.507500", "161253.507500", "161254.507500", "161255.507500", "161256.507500", "161257.507500", "161258.507500", "161259.507500", "161300.507500", "161301.507500", "161302.507500", "161303.507500", "161304.507500", "161305.507500", "161306.507500", "161307.507500", "161308.507500", "161309.507500", "161310.507500", "161311.507500", "161312.507500", "161313.507500", "161314.507500", "161315.507500", "161316.507500", "161317.507500", "161318.507500", "161319.507500", "161320.507500", "161321.507500", "161322.507500", "161323.507500", "161324.507500", "161325.507500", "161326.507500", "161327.507500", "161328.507500", "161329.507500", "161330.507500", "161331.507500", "161332.507500", "161333.507500", "161334.507500", "161335.507500", "161336.507500", "161337.507500", "161338.507500", "161339.507500", "161340.507500", "161341.507500", "161342.507500", "161343.507500", "161344.507500", "161345.507500", "161346.507500", "161347.507500", "161348.507500", "161349.507500", "161350.507500", "161351.507500", "161352.507500", "161353.507500", "161354.507500", "161355.507500", "161356.507500", "161357.507500", "161358.507500", "161359.507500", "161400.507500"],
      "ContentTime": ["161101.810000", "161101.814000", "161101.817000", "161101.820000", "161101.823000", "161101.826000", "161101.829000", "161101.832000", "161101.835000", "161101.838000", "161101.841000", "161101.850000", "161101.853000", "161101.856000", "161101.859000", "161101.862000", "161101.865000", "161101.868000", "161101.871000", "161101.874000", "161101.877000", "161101.880000", "161101.883000", "161101.886000", "161101.889000", "161101.891000", "161101.894000", "161101.897000", "161101.900000", "161101.903000", "161101.909000", "161101.912000", "161101.915000", "161101.918000", "161101.921000", "161101.924000", "161101.927000", "161121.776000", "161121.779000", "161121.782000", "161121.785000", "161121.788000", "161121.791000", "161121.794000", "161121.797000", "161121.800000", "161121.803000", "161121.806000", "161121.820000", "161121.823000", "161121.826000", "161121.829000", "161121.832000", "161121.835000", "161121.838000", "161121.841000", "161121.844000", "161121.847000", "161121.850000", "161121.853000", "161121.856000", "161121.859000", "161121.871000", "161121.874000", "161121.877000", "161141.776000", "161141.779000", "161141.782000", "161141.785000", "161141.788000", "161141.791000", "161141.809000", "161141.812000", "161141.815000", "161141.818000", "161141.821000", "161141.824000", "161141.827000", "161141.830000", "161141.833000", "161141.836000", "161141.839000", "161141.842000", "161141.845000", "161141.848000", "161141.851000", "161141.853000", "161141.856000", "161141.859000", "161141.862000", "161141.865000", "161141.868000", "161141.871000", "161201.776000", "161201.779000", "161201.785000", "161201.788000", "161201.791000", "161201.795000", "161201.797000", "161201.800000", "161201.803000", "161201.806000", "161201.809000", "161201.812000", "161201.815000", "161201.818000", "161201.821000", "161201.824000", "161201.827000", "161201.830000", "161201.833000", "161201.836000", "161201.839000", "161201.842000", "161201.845000", "161201.848000", "161201.851000", "161201.854000", "161201.857000", "161201.860000", "161201.863000", "161221.776000", "161221.779000", "161221.782000", "161221.785000", "161221.788000", "161221.791000", "161221.794000", "161221.797000", "161221.800000", "161221.803000", "161221.806000", "161221.809000", "161221.812000", "161221.815000", "161221.818000", "161221.821000", "161221.824000", "161221.827000", "161221.830000", "161221.832000", "161221.835000", "161221.838000", "161221.841000", "161221.844000", "161221.847000", "161221.850000", "161221.853000", "161221.856000", "161241.776000", "161241.782000", "161241.785000", "161241.788000", "161241.791000", "161241.794000", "161241.797000", "161241.800000", "161241.803000", "161241.806000", "161241.809000", "161241.812000", "161241.815000", "161241.818000", "161241.820000", "161241.823000", "161241.826000", "161241.829000", "161241.832000", "161241.835000", "161241.838000", "161241.841000", "161241.844000", "161241.847000", "161241.850000", "161241.853000", "161241.856000", "161241.859000", "161301.776000", "161301.779000", "161301.782000", "161301.785000", "161301.788000", "161301.791000", "161301.794000", "161301.797000", "161301.800000", "161301.803000", "161301.806000", "161301.809000", "161301.812000", "161301.815000", "161301.818000", "161301.821000", "161301.824000", "161301.827000", "161301.830000", "161301.833000", "161301.836000", "161301.839000", "161301.842000", "161301.844000", "161301.847000", "161321.776000", "161321.779000", "161321.782000", "161321.785000", "161321.788000", "161321.796000", "161321.799000", "161321.802000", "161321.805000", "161321.814000", "161321.817000", "161321.820000", "161321.822000", "161321.826000", "161321.829000", "161321.832000", "161321.835000", "161321.838000", "161321.841000", "161321.844000", "161341.776000", "161341.779000", "161341.782000", "161341.785000", "161341.788000", "161341.791000", "161341.794000", "161341.797000", "161341.800000", "161341.803000", "161341.814000", "161341.817000", "161341.828000", "161341.831000", "161341.834000", "161341.837000", "161341.840000", "161341.843000", "161341.846000", "161341.849000", "161401.776000", "161401.779000", "161401.782000", "161401.785000", "161401.789000", "161401.792000", "161401.795000", "161401.798000", "161401.801000", "161401.804000", "161401.807000", "161401.810000", "161401.813000", "161401.816000", "161401.819000", "161401.822000", "161401.824000", "161401.828000", "161401.831000", "161401.833000", "161402.244000"],
      "InstanceCreationTime": ["161101.810000", "161101.814000", "161101.817000", "161101.820000", "161101.823000", "161101.826000", "161101.829000", "161101.832000", "161101.835000", "161101.838000", "161101.841000", "161101.850000", "161101.853000", "161101.856000", "161101.859000", "161101.862000", "161101.865000", "161101.868000", "161101.871000", "161101.874000", "161101.877000", "161101.880000", "161101.883000", "161101.886000", "161101.889000", "161101.891000", "161101.894000", "161101.897000", "161101.900000", "161101.903000", "161101.909000", "161101.912000", "161101.915000", "161101.918000", "161101.921000", "161101.924000", "161101.927000", "161121.776000", "161121.779000", "161121.782000", "161121.785000", "161121.788000", "161121.791000", "161121.794000", "161121.797000", "161121.800000", "161121.803000", "161121.806000", "161121.820000", "161121.823000", "161121.826000", "161121.829000", "161121.832000", "161121.835000", "161121.838000", "161121.841000", "161121.844000", "161121.847000", "161121.850000", "161121.853000", "161121.856000", "161121.859000", "161121.871000", "161121.874000", "161121.877000", "161141.776000", "161141.779000", "161141.782000", "161141.785000", "161141.788000", "161141.791000", "161141.809000", "161141.812000", "161141.815000", "161141.818000", "161141.821000", "161141.824000", "161141.827000", "161141.830000", "161141.833000", "161141.836000", "161141.839000", "161141.842000", "161141.845000", "161141.848000", "161141.851000", "161141.853000", "161141.856000", "161141.859000", "161141.862000", "161141.865000", "161141.868000", "161141.871000", "161201.776000", "161201.779000", "161201.785000", "161201.788000", "161201.791000", "161201.795000", "161201.797000", "161201.800000", "161201.803000", "161201.806000", "161201.809000", "161201.812000", "161201.815000", "161201.818000", "161201.821000", "161201.824000", "161201.827000", "161201.830000", "161201.833000", "161201.836000", "161201.839000", "161201.842000", "161201.845000", "161201.848000", "161201.851000", "161201.854000", "161201.857000", "161201.860000", "161201.863000", "161221.776000", "161221.779000", "161221.782000", "161221.785000", "161221.788000", "161221.791000", "161221.794000", "161221.797000", "161221.800000", "161221.803000", "161221.806000", "161221.809000", "161221.812000", "161221.815000", "161221.818000", "161221.821000", "161221.824000", "161221.827000", "161221.830000", "161221.832000", "161221.835000", "161221.838000", "161221.841000", "161221.844000", "161221.847000", "161221.850000", "161221.853000", "161221.856000", "161241.776000", "161241.782000", "161241.785000", "161241.788000", "161241.791000", "161241.794000", "161241.797000", "161241.800000", "161241.803000", "161241.806000", "161241.809000", "161241.812000", "161241.815000", "161241.818000", "161241.820000", "161241.823000", "161241.826000", "161241.829000", "161241.832000", "161241.835000", "161241.838000", "161241.841000", "161241.844000", "161241.847000", "161241.850000", "161241.853000", "161241.856000", "161241.859000", "161301.776000", "161301.779000", "161301.782000", "161301.785000", "161301.788000", "161301.791000", "161301.794000", "161301.797000", "161301.800000", "161301.803000", "161301.806000", "161301.809000", "161301.812000", "161301.815000", "161301.818000", "161301.821000", "161301.824000", "161301.827000", "161301.830000", "161301.833000", "161301.836000", "161301.839000", "161301.842000", "161301.844000", "161301.847000", "161321.776000", "161321.779000", "161321.782000", "161321.785000", "161321.788000", "161321.796000", "161321.799000", "161321.802000", "161321.805000", "161321.814000", "161321.817000", "161321.820000", "161321.822000", "161321.826000", "161321.829000", "161321.832000", "161321.835000", "161321.838000", "161321.841000", "161321.844000", "161341.776000", "161341.779000", "161341.782000", "161341.785000", "161341.788000", "161341.791000", "161341.794000", "161341.797000", "161341.800000", "161341.803000", "161341.814000", "161341.817000", "161341.828000", "161341.831000", "161341.834000", "161341.837000", "161341.840000", "161341.843000", "161341.846000", "161341.849000", "161401.776000", "161401.779000", "161401.782000", "161401.785000", "161401.789000", "161401.792000", "161401.795000", "161401.798000", "161401.801000", "161401.804000", "161401.807000", "161401.810000", "161401.813000", "161401.816000", "161401.819000", "161401.822000", "161401.824000", "161401.828000", "161401.831000", "161401.833000", "161402.244000"],
      "InstanceNumber": [1, 2, 3, 4, 5, 6, 7, 8, 9, 10, 11, 12, 13, 14, 15, 16, 17, 18, 19, 20, 21, 22, 23, 24, 25, 26, 27, 28, 29, 30, 31, 32, 33, 34, 35, 36, 37, 38, 39, 40, 41, 42, 43, 44, 45, 46, 47, 48, 49, 50, 51, 52, 53, 54, 55, 56, 57, 58, 59, 60, 61, 62, 63, 64, 65, 66, 67, 68, 69, 70, 71, 72, 73, 74, 75, 76, 77, 78, 79, 80, 81, 82, 83, 84, 85, 86, 87, 88, 89, 90, 91, 92, 93, 94, 95, 96, 97, 98, 99, 100, 101, 102, 103, 104, 105, 106, 107, 108, 109, 110, 111, 112, 113, 114, 115, 116, 117, 118, 119, 120, 121, 122, 123, 124, 125, 126, 127, 128, 129, 130, 131, 132, 133, 134, 135, 136, 137, 138, 139, 140, 141, 142, 143, 144, 145, 146, 147, 148, 149, 150, 151, 152, 153, 154, 155, 156, 157, 158, 159, 160, 161, 162, 163, 164, 165, 166, 167, 168, 169, 170, 171, 172, 173, 174, 175, 176, 177, 178, 179, 180, 181, 182, 183, 184, 185, 186, 187, 188, 189, 190, 191, 192, 193, 194, 195, 196, 197, 198, 199, 200, 201, 202, 203, 204, 205, 206, 207, 208, 209, 210, 211, 212, 213, 214, 215, 216, 217, 218, 219, 220, 221, 222, 223, 224, 225, 226, 227, 228, 229, 230, 231, 232, 233, 234, 235, 236, 237, 238, 239, 240, 241, 242, 243, 244, 245, 246, 247, 248, 249, 250, 251, 252, 253, 254, 255, 256, 257, 258, 259, 260, 261, 262, 263, 264],
      "LargestImagePixelValue": [36088, 32390, 34092, 32647, 33658, 35142, 30695, 34105, 35950, 35422, 36362, 35247, 34327, 36431, 36109, 31334, 36623, 33436, 35953, 32680, 32026, 36242, 31334, 31567, 31726, 32409, 31637, 31892, 32021, 35013, 33149, 34544, 34990, 34725, 35364, 31942, 31794, 34687, 32429, 31240, 31805, 31767, 31791, 31355, 34137, 31244, 33113, 31533, 32104, 31754, 33848, 35740, 34910, 34293, 35033, 31555, 32173, 35767, 34832, 35687, 33936, 33802, 34955, 31796, 32104, 31855, 34392, 32196, 34345, 32164, 31220, 31534, 36477, 33786, 33881, 34328, 33409, 33298, 32059, 33899, 31850, 31681, 32251, 31849, 31735, 31617, 32245, 31563, 31753, 31935, 31763, 31747, 31956, 31936, 31830, 32092, 32367, 32616, 34752, 31854, 34248, 31736, 33249, 31879, 33558, 31717, 32354, 31827, 31926, 32261, 32244, 33480, 32016, 33983, 31483, 31493, 31300, 31452, 32791, 31601, 32561, 31677, 31896, 31254, 32256, 31645, 31298, 33116, 31369, 32281, 31378, 31009, 31458, 31462, 31237, 31635, 33981, 32584, 33591, 31513, 31945, 31445, 31221, 32130, 31289, 32006, 31691, 31678, 31523, 31314, 31814, 31631, 31638, 31604, 33447, 31195, 31853, 31850, 31680, 31392, 31893, 31519, 31865, 31500, 31642, 31313, 31144, 31309, 30860, 32114, 31002, 31800, 31322, 31154, 31400, 31032, 31531, 31291, 30869, 32261, 30756, 32156, 31037, 33282, 31052, 31870, 31371, 31524, 31461, 31097, 33459, 30792, 31234, 30969, 31344, 31229, 32715, 31509, 31293, 32011, 31269, 31001, 31251, 34541, 30854, 32622, 31383, 30806, 31174, 36886, 31572, 33454, 31577, 30572, 31261, 30877, 30177, 32346, 32432, 33390, 32043, 31212, 32407, 31424, 31615, 31537, 31197, 30688, 30504, 31216, 31183, 31205, 30927, 31364, 31145, 31724, 31358, 31688, 30632, 31440, 30612, 31099, 31013, 31261, 31332, 31394, 31419, 31109, 31158, 30914, 31759, 31293, 31610, 31627, 31000, 31450, 31315, 31283, 30940, 31445, 31248, 32523, 31612, 31871],
      "WindowCenter": [9598.0, 9532.0, 9551.0, 9525.0, 9536.0, 9553.0, 9498.0, 9540.0, 9555.0, 9557.0, 9562.0, 9550.0, 9545.0, 9571.0, 9574.0, 9531.0, 9600.0, 9578.0, 9615.0, 9580.0, 9569.0, 9613.0, 9544.0, 9542.0, 9541.0, 9547.0, 9548.0, 9548.0, 9554.0, 9589.0, 9574.0, 9584.0, 9591.0, 9594.0, 9606.0, 9559.0, 9554.0, 9585.0, 9555.0, 9535.0, 9539.0, 9532.0, 9530.0, 9524.0, 9558.0, 9514.0, 9546.0, 9528.0, 9543.0, 9538.0, 9569.0, 9593.0, 9591.0, 9583.0, 9589.0, 9541.0, 9544.0, 9585.0, 9563.0, 9576.0, 9559.0, 9569.0, 9598.0, 9567.0, 9577.0, 9568.0, 9588.0, 9557.0, 9569.0, 9544.0, 9523.0, 9521.0, 9580.0, 9552.0, 9552.0, 9568.0, 9554.0, 9554.0, 9536.0, 9551.0, 9535.0, 9521.0, 9532.0, 9525.0, 9519.0, 9518.0, 9524.0, 9516.0, 9519.0, 9534.0, 9538.0, 9546.0, 9548.0, 9548.0, 9539.0, 9535.0, 9534.0, 9531.0, 9556.0, 9535.0, 9565.0, 9547.0, 9566.0, 9557.0, 9573.0, 9540.0, 9545.0, 9537.0, 9536.0, 9540.0, 9540.0, 9552.0, 9534.0, 9558.0, 9522.0, 9521.0, 9514.0, 9520.0, 9531.0, 9520.0, 9536.0, 9526.0, 9526.0, 9527.0, 9542.0, 9528.0, 9523.0, 9545.0, 9520.0, 9530.0, 9511.0, 9513.0, 9512.0, 9513.0, 9520.0, 9520.0, 9548.0, 9530.0, 9544.0, 9521.0, 9534.0, 9524.0, 9530.0, 9527.0, 9521.0, 9516.0, 9512.0, 9517.0, 9516.0, 9513.0, 9518.0, 9527.0, 9528.0, 9529.0, 9551.0, 9513.0, 9525.0, 9517.0, 9510.0, 9519.0, 9543.0, 9543.0, 9556.0, 9535.0, 9538.0, 9514.0, 9498.0, 9495.0, 9480.0, 9495.0, 9474.0, 9481.0, 9472.0, 9464.0, 9471.0, 9471.0, 9486.0, 9488.0, 9477.0, 9510.0, 9487.0, 9513.0, 9495.0, 9533.0, 9501.0, 9512.0, 9493.0, 9491.0, 9490.0, 9492.0, 9520.0, 9487.0, 9491.0, 9491.0, 9501.0, 9502.0, 9528.0, 9511.0, 9510.0, 9514.0, 9499.0, 9492.0, 9491.0, 9541.0, 9506.0, 9538.0, 9522.0, 9509.0, 9514.0, 9571.0, 9503.0, 9544.0, 9509.0, 9491.0, 9503.0, 9488.0, 9475.0, 9507.0, 9504.0, 9518.0, 9500.0, 9503.0, 9519.0, 9515.0, 9523.0, 9523.0, 9510.0, 9499.0, 9492.0, 9501.0, 9494.0, 9501.0, 9503.0, 9503.0, 9513.0, 9518.0, 9522.0, 9527.0, 9509.0, 9520.0, 9508.0, 9505.0, 9506.0, 9511.0, 9514.0, 9514.0, 9506.0, 9506.0, 9505.0, 9504.0, 9511.0, 9502.0, 9509.0, 9500.0, 9485.0, 9483.0, 9484.0, 9482.0, 9485.0, 9499.0, 9503.0, 9528.0, 9509.0, 9514.0],
      "WindowWidth": [20321.0, 20198.0, 20222.0, 20176.0, 20191.0, 20216.0, 20128.0, 20194.0, 20216.0, 20221.0, 20228.0, 20210.0, 20204.0, 20247.0, 20259.0, 20197.0, 20316.0, 20290.0, 20354.0, 20296.0, 20280.0, 20346.0, 20229.0, 20225.0, 20223.0, 20235.0, 20240.0, 20239.0, 20250.0, 20307.0, 20283.0, 20300.0, 20312.0, 20320.0, 20341.0, 20265.0, 20256.0, 20299.0, 20249.0, 20213.0, 20217.0, 20203.0, 20197.0, 20186.0, 20239.0, 20165.0, 20216.0, 20191.0, 20220.0, 20213.0, 20265.0, 20306.0, 20308.0, 20295.0, 20302.0, 20223.0, 20224.0, 20289.0, 20248.0, 20270.0, 20246.0, 20268.0, 20325.0, 20279.0, 20298.0, 20280.0, 20305.0, 20251.0, 20261.0, 20218.0, 20183.0, 20175.0, 20273.0, 20230.0, 20230.0, 20261.0, 20238.0, 20235.0, 20206.0, 20225.0, 20201.0, 20178.0, 20190.0, 20179.0, 20171.0, 20169.0, 20180.0, 20166.0, 20176.0, 20204.0, 20217.0, 20234.0, 20238.0, 20235.0, 20217.0, 20205.0, 20200.0, 20195.0, 20235.0, 20207.0, 20257.0, 20237.0, 20270.0, 20256.0, 20280.0, 20221.0, 20230.0, 20212.0, 20209.0, 20213.0, 20210.0, 20232.0, 20205.0, 20243.0, 20182.0, 20179.0, 20168.0, 20177.0, 20193.0, 20178.0, 20203.0, 20188.0, 20189.0, 20189.0, 20217.0, 20194.0, 20185.0, 20221.0, 20177.0, 20191.0, 20161.0, 20166.0, 20165.0, 20167.0, 20179.0, 20179.0, 20222.0, 20193.0, 20215.0, 20181.0, 20205.0, 20189.0, 20201.0, 20191.0, 20179.0, 20166.0, 20159.0, 20169.0, 20165.0, 20160.0, 20168.0, 20187.0, 20191.0, 20193.0, 20228.0, 20162.0, 20180.0, 20162.0, 20150.0, 20172.0, 20222.0, 20227.0, 20250.0, 20210.0, 20206.0, 20159.0, 20128.0, 20121.0, 20093.0, 20115.0, 20076.0, 20086.0, 20069.0, 20054.0, 20066.0, 20067.0, 20095.0, 20102.0, 20084.0, 20144.0, 20107.0, 20153.0, 20125.0, 20187.0, 20135.0, 20149.0, 20117.0, 20112.0, 20110.0, 20116.0, 20158.0, 20107.0, 20113.0, 20114.0, 20135.0, 20139.0, 20184.0, 20156.0, 20152.0, 20154.0, 20124.0, 20111.0, 20108.0, 20195.0, 20149.0, 20205.0, 20182.0, 20156.0, 20159.0, 20249.0, 20139.0, 20213.0, 20147.0, 20117.0, 20138.0, 20112.0, 20090.0, 20141.0, 20137.0, 20159.0, 20133.0, 20143.0, 20175.0, 20173.0, 20186.0, 20183.0, 20160.0, 20133.0, 20120.0, 20131.0, 20117.0, 20131.0, 20139.0, 20139.0, 20162.0, 20171.0, 20179.0, 20188.0, 20156.0, 20172.0, 20152.0, 20143.0, 20146.0, 20156.0, 20162.0, 20163.0, 20147.0, 20145.0, 20145.0, 20140.0, 20154.0, 20137.0, 20148.0, 20128.0, 20098.0, 20090.0, 20094.0, 20087.0, 20098.0, 20124.0, 20137.0, 20179.0, 20145.0, 20150.0]
    },
    "slices": {}
  },
  "NumberOfVolumes": 264
}