{
  "AcquisitionMatrixPE": 104,
  "AcquisitionNumber": 1,
  "AcquisitionTime": "16:19:49.522500",
  "BandwidthPerPixelPhaseEncode": 16.578,
  "BaseResolution": 104,
  "BodyPartExamined": "BRAIN",
  "ConsistencyInfo": "N4_VE11C_LATEST_20160120",
  "ConversionSoftware": "dcm2niix",
  "ConversionSoftwareVersion": "v1.0.20190410  GCC6.3.0",
  "DerivedVendorReportedEchoSpacing": 0.000580009,
  "DeviceSerialNumber": "166018",
  "DwellTime": 2.1e-06,
  "EchoTime": 0.037,
  "EchoTrainLength": 104,
  "EffectiveEchoSpacing": 0.000580009,
  "FlipAngle": 68,
  "ImageComments": "Unaliased_MB6_PE3_LB",
  "ImageOrientationPatientDICOM": [0.999403, 0.0342904, 0.00416753, -0.0324551, 0.973451, -0.226581],
  "ImageType": [
    "ORIGINAL",
    "PRIMARY",
    "M",
    "MB",
    "ND",
    "MOSAIC"
],
  "ImagingFrequency": 123.191,
  "InPlanePhaseEncodingDirectionDICOM": "COL",
  "InstitutionAddress": "Washington_Place_6_NYC_NYC_US_10003",
  "InstitutionName": "NYU_-_CBI",
  "InstitutionalDepartmentName": "Department",
  "MRAcquisitionType": "2D",
  "MagneticFieldStrength": 3,
  "Manufacturer": "Siemens",
  "ManufacturersModelName": "Prisma",
  "Modality": "MR",
  "MultibandAccelerationFactor": 6,
  "PartialFourier": 1,
  "PatientPosition": "HFS",
  "PercentPhaseFOV": 100,
  "PhaseEncodingDirection": "j",
  "PhaseEncodingSteps": 104,
  "PhaseResolution": 1,
  "PixelBandwidth": 2290,
  "ProcedureStepDescription": "Investigators_Winawer",
  "ProtocolName": "task-sfprescaled_cmrr_mbepi_s6_2mm_66sl_PA_TR1.0",
  "PulseSequenceDetails": "%CustomerSeq%_cmrr_mbep2d_bold",
  "ReceiveCoilActiveElements": "HC1-7",
  "ReceiveCoilName": "HeadNeck_64",
  "ReconMatrixPE": 104,
  "RepetitionTime": 1,
  "SAR": 0.0720179,
  "ScanOptions": "FS",
  "ScanningSequence": "EP",
  "SequenceName": "epfid2d1_104",
  "SequenceVariant": "SK_SS",
  "SeriesDescription": "task-sfprescaled_cmrr_mbepi_s6_2mm_66sl_PA_TR1.0",
  "SeriesNumber": 24,
  "ShimSetting": [251, -12599, -8434, 396, -51, -72, -50, -8],
  "SliceThickness": 2,
  "SliceTiming": [0, 0.5325, 0.0875, 0.6225, 0.1775, 0.7125, 0.265, 0.8, 0.355, 0.89, 0.445, 0, 0.5325, 0.0875, 0.6225, 0.1775, 0.7125, 0.265, 0.8, 0.355, 0.89, 0.445, 0, 0.5325, 0.0875, 0.6225, 0.1775, 0.7125, 0.265, 0.8, 0.355, 0.89, 0.445, 0, 0.5325, 0.0875, 0.6225, 0.1775, 0.7125, 0.265, 0.8, 0.355, 0.89, 0.445, 0, 0.5325, 0.0875, 0.6225, 0.1775, 0.7125, 0.265, 0.8, 0.355, 0.89, 0.445, 0, 0.5325, 0.0875, 0.6225, 0.1775, 0.7125, 0.265, 0.8, 0.355, 0.89, 0.445],
  "SoftwareVersions": "syngo_MR_E11",
  "SpacingBetweenSlices": 2,
  "StationName": "AWP166018",
  "TaskName": "sfprescaled",
  "TotalReadoutTime": 0.0597409,
  "TxRefAmp": 249.599,
  "WipMemBlock": "aba3b49b-1270-4050-a1a2-8a36a547e145||Sequence: R016 ve11c/master r/8780670; Nov 27 2017 15:05:12 by eja",
  "dcmmeta_affine": [
    [-1.9988064765930176, -0.06491026282310486, 0.02365286834537983, 111.34695434570312],
    [-0.06858080625534058, 1.9469029903411865, -0.45262065529823303, -66.66215515136719],
    [0.008335058577358723, 0.4531616270542145, 1.9479668140411377, -76.0469741821289],
    [0.0, 0.0, 0.0, 1.0]
],
  "dcmmeta_reorient_transform": [
    [0.0, -1.0, 0.0, 103.0],
    [1.0, 0.0, 0.0, 0.0],
    [0.0, 0.0, 1.0, 0.0],
    [0.0, 0.0, 0.0, 1.0]
],
  "dcmmeta_shape": [104, 104, 66, 264],
  "dcmmeta_slice_dim": 2,
  "dcmmeta_version": 0.6,
  "global": {
    "const": {
      "AccessionNumber": "k5oeerc6",
      "AcquisitionMatrix": [104, 0, 0, 104],
      "AngioFlag": "N",
      "BitsAllocated": 16,
      "BitsStored": 16,
      "BodyPartExamined": "BRAIN",
      "Columns": 936,
      "EchoNumbers": 1,
      "EchoTime": 37.0,
      "EchoTrainLength": 104,
      "FlipAngle": 68.0,
      "HighBit": 15,
      "ImageOrientationPatient": [0.99940322193055, 0.03429040237546, 0.00416752921482, -0.0324551295973, 0.97345148859879, -0.2265808109872],
      "ImagePositionPatient": [-909.16201338096, -972.31010395215, 155.67652003242],
      "ImageType": [
        "ORIGINAL",
        "PRIMARY",
        "M",
        "MB",
        "ND",
        "MOSAIC"
],
      "ImagedNucleus": "1H",
      "ImagingFrequency": 123.190725,
      "InPlanePhaseEncodingDirection": "COL",
      "MRAcquisitionType": "2D",
      "MagneticFieldStrength": 3.0,
      "Manufacturer": "SIEMENS",
      "ManufacturerModelName": "Prisma",
      "Modality": "MR",
      "NumberOfAverages": 1.0,
      "NumberOfPhaseEncodingSteps": 104,
      "PercentPhaseFieldOfView": 100.0,
      "PercentSampling": 100.0,
      "PerformedProcedureStepStartTime": "153551.925000",
      "PhotometricInterpretation": "MONOCHROME2",
      "PixelBandwidth": 2290.0,
      "PixelRepresentation": 0,
      "PixelSpacing": [2.0, 2.0],
      "ProtocolName": "task-sfprescaled_cmrr_mbepi_s6_2mm_66sl_PA_TR1.0",
      "RepetitionTime": 1000.0,
      "Rows": 936,
      "SAR": 0.07201794662423,
      "SamplesPerPixel": 1,
      "ScanOptions": "FS",
      "ScanningSequence": "EP",
      "SequenceName": "epfid2d1_104",
      "SequenceVariant": [
        "SK",
        "SS"
],
      "SeriesDescription": "task-sfprescaled_cmrr_mbepi_s6_2mm_66sl_PA_TR1.0",
      "SeriesNumber": 24,
      "SeriesTime": "162101.973000",
      "SliceLocation": -57.665325382993,
      "SliceThickness": 2.0,
      "SmallestImagePixelValue": 0,
      "SoftwareVersions": "syngo MR E11",
      "SpacingBetweenSlices": 1.999999922841,
      "SpecificCharacterSet": "ISO_IR 100",
      "StudyID": "1",
      "StudyTime": "153551.820000",
      "TransmitCoilName": "Body",
      "VariableFlipAngleFlag": "N",
      "WindowCenterWidthExplanation": "Algo1",
      "dBdt": 0.0},
    "slices": {}
  },
  "time": {
    "samples": {
      "AcquisitionNumber": [1, 2, 3, 4, 5, 6, 7, 8, 9, 10, 11, 12, 13, 14, 15, 16, 17, 18, 19, 20, 21, 22, 23, 24, 25, 26, 27, 28, 29, 30, 31, 32, 33, 34, 35, 36, 37, 38, 39, 40, 41, 42, 43, 44, 45, 46, 47, 48, 49, 50, 51, 52, 53, 54, 55, 56, 57, 58, 59, 60, 61, 62, 63, 64, 65, 66, 67, 68, 69, 70, 71, 72, 73, 74, 75, 76, 77, 78, 79, 80, 81, 82, 83, 84, 85, 86, 87, 88, 89, 90, 91, 92, 93, 94, 95, 96, 97, 98, 99, 100, 101, 102, 103, 104, 105, 106, 107, 108, 109, 110, 111, 112, 113, 114, 115, 116, 117, 118, 119, 120, 121, 122, 123, 124, 125, 126, 127, 128, 129, 130, 131, 132, 133, 134, 135, 136, 137, 138, 139, 140, 141, 142, 143, 144, 145, 146, 147, 148, 149, 150, 151, 152, 153, 154, 155, 156, 157, 158, 159, 160, 161, 162, 163, 164, 165, 166, 167, 168, 169, 170, 171, 172, 173, 174, 175, 176, 177, 178, 179, 180, 181, 182, 183, 184, 185, 186, 187, 188, 189, 190, 191, 192, 193, 194, 195, 196, 197, 198, 199, 200, 201, 202, 203, 204, 205, 206, 207, 208, 209, 210, 211, 212, 213, 214, 215, 216, 217, 218, 219, 220, 221, 222, 223, 224, 225, 226, 227, 228, 229, 230, 231, 232, 233, 234, 235, 236, 237, 238, 239, 240, 241, 242, 243, 244, 245, 246, 247, 248, 249, 250, 251, 252, 253, 254, 255, 256, 257, 258, 259, 260, 261, 262, 263, 264],
      "AcquisitionTime": ["161949.522500", "161950.522500", "161951.522500", "161952.522500", "161953.522500", "161954.522500", "161955.522500", "161956.522500", "161957.522500", "161958.522500", "161959.522500", "162000.522500", "162001.522500", "162002.522500", "162003.522500", "162004.522500", "162005.522500", "162006.522500", "162007.522500", "162008.522500", "162009.522500", "162010.522500", "162011.522500", "162012.522500", "162013.522500", "162014.522500", "162015.522500", "162016.522500", "162017.522500", "162018.522500", "162019.522500", "162020.522500", "162021.522500", "162022.522500", "162023.522500", "162024.522500", "162025.522500", "162026.522500", "162027.522500", "162028.522500", "162029.522500", "162030.522500", "162031.522500", "162032.522500", "162033.522500", "162034.522500", "162035.522500", "162036.522500", "162037.522500", "162038.522500", "162039.522500", "162040.522500", "162041.522500", "162042.522500", "162043.522500", "162044.522500", "162045.522500", "162046.522500", "162047.522500", "162048.522500", "162049.522500", "162050.522500", "162051.522500", "162052.522500", "162053.522500", "162054.522500", "162055.522500", "162056.522500", "162057.522500", "162058.522500", "162059.522500", "162100.522500", "162101.522500", "162102.522500", "162103.522500", "162104.522500", "162105.522500", "162106.522500", "162107.522500", "162108.522500", "162109.522500", "162110.522500", "162111.522500", "162112.522500", "162113.522500", "162114.522500", "162115.522500", "162116.522500", "162117.522500", "162118.522500", "162119.522500", "162120.522500", "162121.522500", "162122.522500", "162123.522500", "162124.522500", "162125.522500", "162126.522500", "162127.522500", "162128.522500", "162129.522500", "162130.522500", "162131.522500", "162132.522500", "162133.522500", "162134.522500", "162135.522500", "162136.522500", "162137.522500", "162138.522500", "162139.522500", "162140.522500", "162141.522500", "162142.522500", "162143.522500", "162144.522500", "162145.522500", "162146.522500", "162147.522500", "162148.522500", "162149.522500", "162150.522500", "162151.522500", "162152.522500", "162153.522500", "162154.522500", "162155.522500", "162156.522500", "162157.522500", "162158.522500", "162159.522500", "162200.522500", "162201.522500", "162202.522500", "162203.522500", "162204.522500", "162205.522500", "162206.522500", "162207.522500", "162208.522500", "162209.522500", "162210.522500", "162211.522500", "162212.522500", "162213.522500", "162214.522500", "162215.522500", "162216.522500", "162217.522500", "162218.522500", "162219.522500", "162220.522500", "162221.522500", "162222.522500", "162223.522500", "162224.522500", "162225.522500", "162226.522500", "162227.522500", "162228.522500", "162229.522500", "162230.522500", "162231.522500", "162232.522500", "162233.522500", "162234.522500", "162235.522500", "162236.522500", "162237.522500", "162238.522500", "162239.522500", "162240.522500", "162241.522500", "162242.522500", "162243.522500", "162244.522500", "162245.522500", "162246.522500", "162247.522500", "162248.522500", "162249.522500", "162250.522500", "162251.522500", "162252.522500", "162253.522500", "162254.522500", "162255.522500", "162256.522500", "162257.522500", "162258.522500", "162259.522500", "162300.522500", "162301.522500", "162302.522500", "162303.522500", "162304.522500", "162305.522500", "162306.522500", "162307.522500", "162308.522500", "162309.522500", "162310.522500", "162311.522500", "162312.522500", "162313.522500", "162314.522500", "162315.522500", "162316.522500", "162317.522500", "162318.522500", "162319.522500", "162320.522500", "162321.522500", "162322.522500", "162323.522500", "162324.522500", "162325.522500", "162326.522500", "162327.522500", "162328.522500", "162329.522500", "162330.522500", "162331.522500", "162332.522500", "162333.522500", "162334.522500", "162335.522500", "162336.522500", "162337.522500", "162338.522500", "162339.522500", "162340.522500", "162341.522500", "162342.522500", "162343.522500", "162344.522500", "162345.522500", "162346.522500", "162347.522500", "162348.522500", "162349.522500", "162350.522500", "162351.522500", "162352.522500", "162353.522500", "162354.522500", "162355.522500", "162356.522500", "162357.522500", "162358.522500", "162359.522500", "162400.522500", "162401.522500", "162402.522500", "162403.522500", "162404.522500", "162405.522500", "162406.522500", "162407.522500", "162408.522500", "162409.522500", "162410.522500", "162411.522500", "162412.522500"],
      "ContentTime": ["162101.975000", "162101.979000", "162101.982000", "162101.985000", "162101.989000", "162101.992000", "162101.994000", "162102.000000", "162102.003000", "162102.012000", "162102.014000", "162102.018000", "162102.021000", "162102.024000", "162102.027000", "162102.030000", "162102.033000", "162102.036000", "162102.039000", "162102.042000", "162102.045000", "162102.048000", "162102.051000", "162121.936000", "162121.939000", "162121.943000", "162121.946000", "162121.949000", "162121.952000", "162121.955000", "162121.958000", "162121.961000", "162121.964000", "162121.967000", "162121.970000", "162121.973000", "162121.976000", "162121.979000", "162121.982000", "162121.985000", "162121.988000", "162121.991000", "162121.995000", "162121.998000", "162122.002000", "162122.005000", "162122.008000", "162122.011000", "162122.031000", "162122.034000", "162122.037000", "162141.936000", "162141.939000", "162141.942000", "162141.945000", "162141.948000", "162141.951000", "162141.954000", "162141.957000", "162141.960000", "162141.963000", "162141.966000", "162141.969000", "162141.972000", "162141.975000", "162141.978000", "162141.981000", "162141.984000", "162141.987000", "162141.990000", "162141.993000", "162141.996000", "162142.000000", "162142.003000", "162142.006000", "162142.009000", "162142.012000", "162142.015000", "162142.018000", "162201.936000", "162201.939000", "162201.942000", "162201.945000", "162201.948000", "162201.951000", "162201.954000", "162201.958000", "162201.961000", "162201.964000", "162201.967000", "162201.970000", "162201.973000", "162201.976000", "162201.979000", "162201.982000", "162201.985000", "162201.988000", "162201.991000", "162201.994000", "162201.997000", "162202.001000", "162202.004000", "162202.007000", "162202.010000", "162202.014000", "162202.017000", "162202.020000", "162221.936000", "162221.939000", "162221.942000", "162221.945000", "162221.948000", "162221.951000", "162221.954000", "162221.957000", "162221.970000", "162221.973000", "162221.976000", "162221.979000", "162221.982000", "162221.985000", "162221.988000", "162221.994000", "162221.998000", "162222.002000", "162222.005000", "162222.008000", "162222.011000", "162222.014000", "162222.017000", "162222.020000", "162222.023000", "162222.026000", "162222.029000", "162222.032000", "162241.936000", "162241.939000", "162241.943000", "162241.946000", "162241.949000", "162241.952000", "162241.955000", "162241.958000", "162241.961000", "162241.964000", "162241.967000", "162241.970000", "162241.973000", "162241.976000", "162241.979000", "162241.982000", "162241.985000", "162241.988000", "162241.991000", "162241.994000", "162241.997000", "162242.001000", "162242.004000", "162242.007000", "162242.010000", "162242.013000", "162242.016000", "162242.019000", "162242.022000", "162301.936000", "162301.939000", "162301.942000", "162301.946000", "162301.949000", "162301.952000", "162301.955000", "162301.958000", "162301.961000", "162301.964000", "162301.967000", "162301.970000", "162301.973000", "162301.976000", "162301.979000", "162301.982000", "162301.985000", "162301.988000", "162301.991000", "162301.994000", "162301.997000", "162302.001000", "162302.004000", "162302.007000", "162302.010000", "162302.013000", "162302.016000", "162321.936000", "162321.939000", "162321.942000", "162321.945000", "162321.948000", "162321.951000", "162321.957000", "162321.960000", "162321.963000", "162321.966000", "162321.969000", "162321.972000", "162321.975000", "162321.978000", "162321.981000", "162321.984000", "162321.987000", "162321.990000", "162321.993000", "162321.996000", "162341.936000", "162341.939000", "162341.942000", "162341.946000", "162341.949000", "162341.952000", "162341.955000", "162341.957000", "162341.961000", "162341.964000", "162341.967000", "162341.970000", "162341.973000", "162341.976000", "162341.979000", "162341.982000", "162341.985000", "162341.988000", "162341.991000", "162341.994000", "162401.936000", "162401.939000", "162401.942000", "162401.945000", "162401.961000", "162401.964000", "162401.967000", "162401.970000", "162401.973000", "162401.976000", "162401.979000", "162401.982000", "162401.985000", "162401.988000", "162401.991000", "162401.994000", "162401.997000", "162402.001000", "162402.004000", "162402.008000", "162414.074000", "162414.078000", "162414.081000", "162414.086000", "162414.089000", "162414.093000", "162414.096000", "162414.101000", "162414.105000", "162414.108000", "162414.111000", "162414.115000", "162414.119000"],
      "InstanceCreationTime": ["162101.975000", "162101.979000", "162101.982000", "162101.985000", "162101.989000", "162101.992000", "162101.994000", "162102.000000", "162102.003000", "162102.012000", "162102.014000", "162102.018000", "162102.021000", "162102.024000", "162102.027000", "162102.030000", "162102.033000", "162102.036000", "162102.039000", "162102.042000", "162102.045000", "162102.048000", "162102.051000", "162121.936000", "162121.939000", "162121.943000", "162121.946000", "162121.949000", "162121.952000", "162121.955000", "162121.958000", "162121.961000", "162121.964000", "162121.967000", "162121.970000", "162121.973000", "162121.976000", "162121.979000", "162121.982000", "162121.985000", "162121.988000", "162121.991000", "162121.995000", "162121.998000", "162122.002000", "162122.005000", "162122.008000", "162122.011000", "162122.031000", "162122.034000", "162122.037000", "162141.936000", "162141.939000", "162141.942000", "162141.945000", "162141.948000", "162141.951000", "162141.954000", "162141.957000", "162141.960000", "162141.963000", "162141.966000", "162141.969000", "162141.972000", "162141.975000", "162141.978000", "162141.981000", "162141.984000", "162141.987000", "162141.990000", "162141.993000", "162141.996000", "162142.000000", "162142.003000", "162142.006000", "162142.009000", "162142.012000", "162142.015000", "162142.018000", "162201.936000", "162201.939000", "162201.942000", "162201.945000", "162201.948000", "162201.951000", "162201.954000", "162201.958000", "162201.961000", "162201.964000", "162201.967000", "162201.970000", "162201.973000", "162201.976000", "162201.979000", "162201.982000", "162201.985000", "162201.988000", "162201.991000", "162201.994000", "162201.997000", "162202.001000", "162202.004000", "162202.007000", "162202.010000", "162202.014000", "162202.017000", "162202.020000", "162221.936000", "162221.939000", "162221.942000", "162221.945000", "162221.948000", "162221.951000", "162221.954000", "162221.957000", "162221.970000", "162221.973000", "162221.976000", "162221.979000", "162221.982000", "162221.985000", "162221.988000", "162221.994000", "162221.998000", "162222.002000", "162222.005000", "162222.008000", "162222.011000", "162222.014000", "162222.017000", "162222.020000", "162222.023000", "162222.026000", "162222.029000", "162222.032000", "162241.936000", "162241.939000", "162241.943000", "162241.946000", "162241.949000", "162241.952000", "162241.955000", "162241.958000", "162241.961000", "162241.964000", "162241.967000", "162241.970000", "162241.973000", "162241.976000", "162241.979000", "162241.982000", "162241.985000", "162241.988000", "162241.991000", "162241.994000", "162241.997000", "162242.001000", "162242.004000", "162242.007000", "162242.010000", "162242.013000", "162242.016000", "162242.019000", "162242.022000", "162301.936000", "162301.939000", "162301.942000", "162301.946000", "162301.949000", "162301.952000", "162301.955000", "162301.958000", "162301.961000", "162301.964000", "162301.967000", "162301.970000", "162301.973000", "162301.976000", "162301.979000", "162301.982000", "162301.985000", "162301.988000", "162301.991000", "162301.994000", "162301.997000", "162302.001000", "162302.004000", "162302.007000", "162302.010000", "162302.013000", "162302.016000", "162321.936000", "162321.939000", "162321.942000", "162321.945000", "162321.948000", "162321.951000", "162321.957000", "162321.960000", "162321.963000", "162321.966000", "162321.969000", "162321.972000", "162321.975000", "162321.978000", "162321.981000", "162321.984000", "162321.987000", "162321.990000", "162321.993000", "162321.996000", "162341.936000", "162341.939000", "162341.942000", "162341.946000", "162341.949000", "162341.952000", "162341.955000", "162341.957000", "162341.961000", "162341.964000", "162341.967000", "162341.970000", "162341.973000", "162341.976000", "162341.979000", "162341.982000", "162341.985000", "162341.988000", "162341.991000", "162341.994000", "162401.936000", "162401.939000", "162401.942000", "162401.945000", "162401.961000", "162401.964000", "162401.967000", "162401.970000", "162401.973000", "162401.976000", "162401.979000", "162401.982000", "162401.985000", "162401.988000", "162401.991000", "162401.994000", "162401.997000", "162402.001000", "162402.004000", "162402.008000", "162414.074000", "162414.078000", "162414.081000", "162414.086000", "162414.089000", "162414.093000", "162414.096000", "162414.101000", "162414.105000", "162414.108000", "162414.111000", "162414.115000", "162414.119000"],
      "InstanceNumber": [1, 2, 3, 4, 5, 6, 7, 8, 9, 10, 11, 12, 13, 14, 15, 16, 17, 18, 19, 20, 21, 22, 23, 24, 25, 26, 27, 28, 29, 30, 31, 32, 33, 34, 35, 36, 37, 38, 39, 40, 41, 42, 43, 44, 45, 46, 47, 48, 49, 50, 51, 52, 53, 54, 55, 56, 57, 58, 59, 60, 61, 62, 63, 64, 65, 66, 67, 68, 69, 70, 71, 72, 73, 74, 75, 76, 77, 78, 79, 80, 81, 82, 83, 84, 85, 86, 87, 88, 89, 90, 91, 92, 93, 94, 95, 96, 97, 98, 99, 100, 101, 102, 103, 104, 105, 106, 107, 108, 109, 110, 111, 112, 113, 114, 115, 116, 117, 118, 119, 120, 121, 122, 123, 124, 125, 126, 127, 128, 129, 130, 131, 132, 133, 134, 135, 136, 137, 138, 139, 140, 141, 142, 143, 144, 145, 146, 147, 148, 149, 150, 151, 152, 153, 154, 155, 156, 157, 158, 159, 160, 161, 162, 163, 164, 165, 166, 167, 168, 169, 170, 171, 172, 173, 174, 175, 176, 177, 178, 179, 180, 181, 182, 183, 184, 185, 186, 187, 188, 189, 190, 191, 192, 193, 194, 195, 196, 197, 198, 199, 200, 201, 202, 203, 204, 205, 206, 207, 208, 209, 210, 211, 212, 213, 214, 215, 216, 217, 218, 219, 220, 221, 222, 223, 224, 225, 226, 227, 228, 229, 230, 231, 232, 233, 234, 235, 236, 237, 238, 239, 240, 241, 242, 243, 244, 245, 246, 247, 248, 249, 250, 251, 252, 253, 254, 255, 256, 257, 258, 259, 260, 261, 262, 263, 264],
      "LargestImagePixelValue": [33937, 32497, 32710, 32022, 31774, 31627, 32802, 31925, 32867, 31703, 34247, 32448, 33886, 31759, 33214, 31352, 33399, 31353, 32368, 35688, 34699, 33869, 31820, 33165, 31818, 31878, 33346, 31228, 36586, 31881, 34772, 31948, 38081, 34935, 37023, 31868, 37869, 35687, 37256, 33389, 32066, 32207, 31748, 32697, 31615, 33148, 31142, 34227, 32165, 34383, 31676, 35876, 35362, 37394, 31810, 34339, 34532, 35968, 32754, 34806, 33548, 34670, 32371, 34458, 31586, 34630, 33463, 37880, 36439, 37442, 32144, 31890, 34973, 31421, 34493, 33291, 34901, 31648, 37947, 35794, 36181, 32667, 31911, 32840, 38143, 36855, 33354, 31097, 34040, 32319, 34852, 31317, 36775, 34093, 34796, 31703, 35651, 32122, 35690, 33575, 36593, 31865, 36635, 31481, 34784, 31675, 37702, 36125, 36081, 36522, 36049, 36281, 35260, 32686, 32973, 35214, 33811, 37607, 35918, 36106, 31474, 32986, 31324, 32714, 31713, 33211, 32715, 32091, 35699, 31539, 34992, 31563, 37175, 31834, 34396, 31466, 33533, 31421, 33303, 31409, 33366, 31722, 35241, 31683, 37419, 35938, 36890, 35409, 37020, 36044, 36551, 35673, 36577, 35341, 36868, 36227, 36515, 35416, 36073, 35496, 35068, 32125, 33815, 31622, 33842, 31699, 33289, 31289, 32281, 31390, 32506, 32746, 32564, 32916, 31643, 31397, 33755, 31524, 34019, 31319, 31048, 31615, 31259, 35187, 31317, 33584, 32310, 32113, 34406, 32075, 34711, 31233, 31477, 34910, 31456, 33583, 31164, 32791, 30659, 32338, 30964, 31142, 33514, 31464, 32671, 31409, 31713, 31175, 31759, 30631, 30864, 31279, 32078, 30996, 31452, 30772, 31260, 30815, 31516, 31302, 32673, 30908, 32107, 31450, 31949, 30855, 31404, 30993, 31922, 31317, 31263, 30631, 31423, 30991, 31357, 33067, 31151, 32096, 31463, 31093, 35781, 31275, 32846, 30833, 34147, 31670, 34365, 31773, 32604, 32093, 31726, 31283, 31867, 31206, 32893, 34207, 32200, 33408, 35278, 33399, 32949, 36367, 33524, 34137],
      "WindowCenter": [9600.0, 9569.0, 9559.0, 9554.0, 9548.0, 9548.0, 9558.0, 9545.0, 9548.0, 9518.0, 9567.0, 9539.0, 9557.0, 9527.0, 9553.0, 9537.0, 9565.0, 9550.0, 9570.0, 9604.0, 9592.0, 9577.0, 9538.0, 9546.0, 9518.0, 9527.0, 9545.0, 9522.0, 9589.0, 9537.0, 9572.0, 9545.0, 9614.0, 9578.0, 9593.0, 9525.0, 9590.0, 9572.0, 9583.0, 9549.0, 9533.0, 9532.0, 9526.0, 9537.0, 9525.0, 9535.0, 9509.0, 9546.0, 9520.0, 9544.0, 9516.0, 9578.0, 9591.0, 9619.0, 9554.0, 9585.0, 9580.0, 9584.0, 9540.0, 9567.0, 9542.0, 9552.0, 9521.0, 9543.0, 9506.0, 9542.0, 9530.0, 9579.0, 9576.0, 9581.0, 9524.0, 9523.0, 9553.0, 9512.0, 9553.0, 9540.0, 9551.0, 9516.0, 9587.0, 9565.0, 9571.0, 9529.0, 9524.0, 9525.0, 9608.0, 9585.0, 9544.0, 9521.0, 9559.0, 9540.0, 9569.0, 9511.0, 9576.0, 9554.0, 9561.0, 9534.0, 9574.0, 9533.0, 9571.0, 9540.0, 9566.0, 9511.0, 9557.0, 9497.0, 9540.0, 9498.0, 9567.0, 9550.0, 9549.0, 9557.0, 9566.0, 9571.0, 9568.0, 9531.0, 9528.0, 9555.0, 9529.0, 9574.0, 9552.0, 9559.0, 9509.0, 9528.0, 9503.0, 9523.0, 9510.0, 9535.0, 9523.0, 9509.0, 9553.0, 9497.0, 9530.0, 9497.0, 9564.0, 9515.0, 9544.0, 9500.0, 9531.0, 9492.0, 9516.0, 9483.0, 9506.0, 9483.0, 9526.0, 9487.0, 9559.0, 9551.0, 9557.0, 9554.0, 9564.0, 9560.0, 9559.0, 9546.0, 9551.0, 9539.0, 9553.0, 9543.0, 9547.0, 9545.0, 9552.0, 9554.0, 9549.0, 9504.0, 9520.0, 9481.0, 9510.0, 9486.0, 9503.0, 9480.0, 9501.0, 9488.0, 9519.0, 9529.0, 9546.0, 9547.0, 9519.0, 9504.0, 9531.0, 9496.0, 9512.0, 9472.0, 9471.0, 9486.0, 9483.0, 9539.0, 9498.0, 9520.0, 9500.0, 9492.0, 9523.0, 9501.0, 9533.0, 9500.0, 9500.0, 9540.0, 9492.0, 9514.0, 9476.0, 9498.0, 9465.0, 9492.0, 9481.0, 9483.0, 9520.0, 9483.0, 9501.0, 9481.0, 9480.0, 9481.0, 9488.0, 9476.0, 9484.0, 9491.0, 9513.0, 9502.0, 9510.0, 9505.0, 9510.0, 9494.0, 9510.0, 9510.0, 9537.0, 9513.0, 9518.0, 9502.0, 9506.0, 9477.0, 9483.0, 9473.0, 9486.0, 9482.0, 9490.0, 9485.0, 9493.0, 9493.0, 9503.0, 9528.0, 9503.0, 9508.0, 9491.0, 9483.0, 9533.0, 9478.0, 9497.0, 9466.0, 9517.0, 9488.0, 9525.0, 9497.0, 9510.0, 9498.0, 9499.0, 9491.0, 9505.0, 9491.0, 9508.0, 9516.0, 9512.0, 9519.0, 9530.0, 9514.0, 9516.0, 9560.0, 9525.0, 9530.0],
      "WindowWidth": [20343.0, 20279.0, 20255.0, 20248.0, 20240.0, 20237.0, 20249.0, 20225.0, 20225.0, 20165.0, 20253.0, 20202.0, 20230.0, 20184.0, 20228.0, 20206.0, 20260.0, 20240.0, 20274.0, 20327.0, 20305.0, 20277.0, 20210.0, 20217.0, 20169.0, 20186.0, 20218.0, 20183.0, 20292.0, 20208.0, 20263.0, 20223.0, 20332.0, 20270.0, 20291.0, 20177.0, 20282.0, 20255.0, 20272.0, 20221.0, 20198.0, 20194.0, 20183.0, 20201.0, 20179.0, 20195.0, 20149.0, 20209.0, 20166.0, 20205.0, 20164.0, 20271.0, 20301.0, 20354.0, 20248.0, 20297.0, 20281.0, 20285.0, 20209.0, 20248.0, 20203.0, 20218.0, 20164.0, 20198.0, 20135.0, 20196.0, 20178.0, 20259.0, 20257.0, 20265.0, 20176.0, 20173.0, 20220.0, 20157.0, 20222.0, 20200.0, 20218.0, 20159.0, 20278.0, 20243.0, 20253.0, 20184.0, 20175.0, 20170.0, 20324.0, 20277.0, 20211.0, 20178.0, 20241.0, 20209.0, 20252.0, 20153.0, 20257.0, 20225.0, 20241.0, 20200.0, 20264.0, 20196.0, 20251.0, 20199.0, 20235.0, 20142.0, 20214.0, 20119.0, 20188.0, 20124.0, 20232.0, 20206.0, 20204.0, 20219.0, 20242.0, 20256.0, 20253.0, 20190.0, 20178.0, 20217.0, 20175.0, 20246.0, 20211.0, 20227.0, 20148.0, 20181.0, 20137.0, 20172.0, 20153.0, 20192.0, 20172.0, 20147.0, 20213.0, 20119.0, 20167.0, 20120.0, 20231.0, 20156.0, 20204.0, 20127.0, 20175.0, 20110.0, 20147.0, 20089.0, 20125.0, 20082.0, 20153.0, 20094.0, 20214.0, 20208.0, 20219.0, 20216.0, 20232.0, 20227.0, 20222.0, 20201.0, 20207.0, 20188.0, 20206.0, 20192.0, 20195.0, 20197.0, 20212.0, 20218.0, 20209.0, 20129.0, 20151.0, 20084.0, 20129.0, 20092.0, 20120.0, 20086.0, 20123.0, 20104.0, 20162.0, 20189.0, 20220.0, 20223.0, 20171.0, 20139.0, 20178.0, 20112.0, 20134.0, 20065.0, 20065.0, 20093.0, 20094.0, 20188.0, 20122.0, 20152.0, 20115.0, 20101.0, 20150.0, 20121.0, 20177.0, 20127.0, 20127.0, 20189.0, 20108.0, 20140.0, 20075.0, 20110.0, 20053.0, 20099.0, 20087.0, 20092.0, 20153.0, 20092.0, 20120.0, 20086.0, 20083.0, 20085.0, 20100.0, 20080.0, 20098.0, 20110.0, 20150.0, 20138.0, 20151.0, 20143.0, 20149.0, 20120.0, 20148.0, 20150.0, 20199.0, 20161.0, 20163.0, 20132.0, 20135.0, 20079.0, 20087.0, 20068.0, 20093.0, 20089.0, 20105.0, 20098.0, 20114.0, 20115.0, 20135.0, 20177.0, 20132.0, 20135.0, 20099.0, 20085.0, 20162.0, 20072.0, 20107.0, 20056.0, 20142.0, 20099.0, 20161.0, 20117.0, 20139.0, 20120.0, 20124.0, 20108.0, 20132.0, 20105.0, 20131.0, 20139.0, 20140.0, 20151.0, 20164.0, 20143.0, 20148.0, 20221.0, 20164.0, 20168.0]
    },
    "slices": {}
  },
  "NumberOfVolumes": 264
}