{
  "AcquisitionMatrixPE": 104,
  "AcquisitionNumber": 1,
  "AcquisitionTime": "15:40:25.132500",
  "BandwidthPerPixelPhaseEncode": 16.578,
  "BaseResolution": 104,
  "BodyPartExamined": "BRAIN",
  "ConsistencyInfo": "N4_VE11C_LATEST_20160120",
  "ConversionSoftware": "dcm2niix",
  "ConversionSoftwareVersion": "v1.0.20190410  GCC6.3.0",
  "DerivedVendorReportedEchoSpacing": 0.000580009,
  "DeviceSerialNumber": "166018",
  "DwellTime": 2.1e-06,
  "EchoTime": 0.037,
  "EchoTrainLength": 104,
  "EffectiveEchoSpacing": 0.000580009,
  "FlipAngle": 68,
  "ImageComments": "Unaliased_MB6_PE3_LB",
  "ImageOrientationPatientDICOM": [0.999403, 0.0342904, 0.00416753, -0.0324551, 0.973451, -0.226581],
  "ImageType": [
    "ORIGINAL",
    "PRIMARY",
    "M",
    "MB",
    "ND",
    "MOSAIC"
],
  "ImagingFrequency": 123.191,
  "InPlanePhaseEncodingDirectionDICOM": "COL",
  "InstitutionAddress": "Washington_Place_6_NYC_NYC_US_10003",
  "InstitutionName": "NYU_-_CBI",
  "InstitutionalDepartmentName": "Department",
  "MRAcquisitionType": "2D",
  "MagneticFieldStrength": 3,
  "Manufacturer": "Siemens",
  "ManufacturersModelName": "Prisma",
  "Modality": "MR",
  "MultibandAccelerationFactor": 6,
  "PartialFourier": 1,
  "PatientPosition": "HFS",
  "PercentPhaseFOV": 100,
  "PhaseEncodingDirection": "j",
  "PhaseEncodingSteps": 104,
  "PhaseResolution": 1,
  "PixelBandwidth": 2290,
  "ProcedureStepDescription": "Investigators_Winawer",
  "ProtocolName": "task-sfprescaled_cmrr_mbepi_s6_2mm_66sl_PA_TR1.0",
  "PulseSequenceDetails": "%CustomerSeq%_cmrr_mbep2d_bold",
  "ReceiveCoilActiveElements": "HC1-7",
  "ReceiveCoilName": "HeadNeck_64",
  "ReconMatrixPE": 104,
  "RepetitionTime": 1,
  "SAR": 0.0720179,
  "ScanOptions": "FS",
  "ScanningSequence": "EP",
  "SequenceName": "epfid2d1_104",
  "SequenceVariant": "SK_SS",
  "SeriesDescription": "task-sfprescaled_cmrr_mbepi_s6_2mm_66sl_PA_TR1.0",
  "SeriesNumber": 8,
  "ShimSetting": [251, -12599, -8434, 396, -51, -72, -50, -8],
  "SliceThickness": 2,
  "SliceTiming": [0, 0.535, 0.09, 0.625, 0.18, 0.7125, 0.2675, 0.8025, 0.3575, 0.8925, 0.445, 0, 0.535, 0.09, 0.625, 0.18, 0.7125, 0.2675, 0.8025, 0.3575, 0.8925, 0.445, 0, 0.535, 0.09, 0.625, 0.18, 0.7125, 0.2675, 0.8025, 0.3575, 0.8925, 0.445, 0, 0.535, 0.09, 0.625, 0.18, 0.7125, 0.2675, 0.8025, 0.3575, 0.8925, 0.445, 0, 0.535, 0.09, 0.625, 0.18, 0.7125, 0.2675, 0.8025, 0.3575, 0.8925, 0.445, 0, 0.535, 0.09, 0.625, 0.18, 0.7125, 0.2675, 0.8025, 0.3575, 0.8925, 0.445],
  "SoftwareVersions": "syngo_MR_E11",
  "SpacingBetweenSlices": 2,
  "StationName": "AWP166018",
  "TaskName": "sfprescaled",
  "TotalReadoutTime": 0.0597409,
  "TxRefAmp": 249.599,
  "WipMemBlock": "aba3b49b-1270-4050-a1a2-8a36a547e145||Sequence: R016 ve11c/master r/8780670; Nov 27 2017 15:05:12 by eja",
  "dcmmeta_affine": [
    [-1.9988064765930176, -0.06491026282310486, 0.02365286834537983, 111.34695434570312],
    [-0.06858080625534058, 1.9469029903411865, -0.45262065529823303, -66.66215515136719],
    [0.008335058577358723, 0.4531616270542145, 1.9479668140411377, -76.0469741821289],
    [0.0, 0.0, 0.0, 1.0]
],
  "dcmmeta_reorient_transform": [
    [0.0, -1.0, 0.0, 103.0],
    [1.0, 0.0, 0.0, 0.0],
    [0.0, 0.0, 1.0, 0.0],
    [0.0, 0.0, 0.0, 1.0]
],
  "dcmmeta_shape": [104, 104, 66, 264],
  "dcmmeta_slice_dim": 2,
  "dcmmeta_version": 0.6,
  "global": {
    "const": {
      "AccessionNumber": "k5oeerc6",
      "AcquisitionMatrix": [104, 0, 0, 104],
      "AngioFlag": "N",
      "BitsAllocated": 16,
      "BitsStored": 16,
      "BodyPartExamined": "BRAIN",
      "Columns": 936,
      "EchoNumbers": 1,
      "EchoTime": 37.0,
      "EchoTrainLength": 104,
      "FlipAngle": 68.0,
      "HighBit": 15,
      "ImageOrientationPatient": [0.99940322193055, 0.03429040237546, 0.00416752921482, -0.0324551295973, 0.97345148859879, -0.2265808109872],
      "ImagePositionPatient": [-909.16201338096, -972.31010395215, 155.67652003242],
      "ImageType": [
        "ORIGINAL",
        "PRIMARY",
        "M",
        "MB",
        "ND",
        "MOSAIC"
],
      "ImagedNucleus": "1H",
      "ImagingFrequency": 123.190725,
      "InPlanePhaseEncodingDirection": "COL",
      "MRAcquisitionType": "2D",
      "MagneticFieldStrength": 3.0,
      "Manufacturer": "SIEMENS",
      "ManufacturerModelName": "Prisma",
      "Modality": "MR",
      "NumberOfAverages": 1.0,
      "NumberOfPhaseEncodingSteps": 104,
      "PercentPhaseFieldOfView": 100.0,
      "PercentSampling": 100.0,
      "PerformedProcedureStepStartTime": "153551.925000",
      "PhotometricInterpretation": "MONOCHROME2",
      "PixelBandwidth": 2290.0,
      "PixelRepresentation": 0,
      "PixelSpacing": [2.0, 2.0],
      "ProtocolName": "task-sfprescaled_cmrr_mbepi_s6_2mm_66sl_PA_TR1.0",
      "RepetitionTime": 1000.0,
      "Rows": 936,
      "SAR": 0.07201794662423,
      "SamplesPerPixel": 1,
      "ScanOptions": "FS",
      "ScanningSequence": "EP",
      "SequenceName": "epfid2d1_104",
      "SequenceVariant": [
        "SK",
        "SS"
],
      "SeriesDescription": "task-sfprescaled_cmrr_mbepi_s6_2mm_66sl_PA_TR1.0",
      "SeriesNumber": 8,
      "SeriesTime": "154141.807000",
      "SliceLocation": -57.665325382993,
      "SliceThickness": 2.0,
      "SmallestImagePixelValue": 0,
      "SoftwareVersions": "syngo MR E11",
      "SpacingBetweenSlices": 1.999999922841,
      "SpecificCharacterSet": "ISO_IR 100",
      "StudyID": "1",
      "StudyTime": "153551.820000",
      "TransmitCoilName": "Body",
      "VariableFlipAngleFlag": "N",
      "WindowCenterWidthExplanation": "Algo1",
      "dBdt": 0.0},
    "slices": {}
  },
  "time": {
    "samples": {
      "AcquisitionNumber": [1, 2, 3, 4, 5, 6, 7, 8, 9, 10, 11, 12, 13, 14, 15, 16, 17, 18, 19, 20, 21, 22, 23, 24, 25, 26, 27, 28, 29, 30, 31, 32, 33, 34, 35, 36, 37, 38, 39, 40, 41, 42, 43, 44, 45, 46, 47, 48, 49, 50, 51, 52, 53, 54, 55, 56, 57, 58, 59, 60, 61, 62, 63, 64, 65, 66, 67, 68, 69, 70, 71, 72, 73, 74, 75, 76, 77, 78, 79, 80, 81, 82, 83, 84, 85, 86, 87, 88, 89, 90, 91, 92, 93, 94, 95, 96, 97, 98, 99, 100, 101, 102, 103, 104, 105, 106, 107, 108, 109, 110, 111, 112, 113, 114, 115, 116, 117, 118, 119, 120, 121, 122, 123, 124, 125, 126, 127, 128, 129, 130, 131, 132, 133, 134, 135, 136, 137, 138, 139, 140, 141, 142, 143, 144, 145, 146, 147, 148, 149, 150, 151, 152, 153, 154, 155, 156, 157, 158, 159, 160, 161, 162, 163, 164, 165, 166, 167, 168, 169, 170, 171, 172, 173, 174, 175, 176, 177, 178, 179, 180, 181, 182, 183, 184, 185, 186, 187, 188, 189, 190, 191, 192, 193, 194, 195, 196, 197, 198, 199, 200, 201, 202, 203, 204, 205, 206, 207, 208, 209, 210, 211, 212, 213, 214, 215, 216, 217, 218, 219, 220, 221, 222, 223, 224, 225, 226, 227, 228, 229, 230, 231, 232, 233, 234, 235, 236, 237, 238, 239, 240, 241, 242, 243, 244, 245, 246, 247, 248, 249, 250, 251, 252, 253, 254, 255, 256, 257, 258, 259, 260, 261, 262, 263, 264],
      "AcquisitionTime": ["154025.132500", "154026.132500", "154027.132500", "154028.132500", "154029.132500", "154030.132500", "154031.132500", "154032.132500", "154033.132500", "154034.132500", "154035.132500", "154036.132500", "154037.132500", "154038.132500", "154039.132500", "154040.132500", "154041.132500", "154042.132500", "154043.132500", "154044.132500", "154045.132500", "154046.132500", "154047.132500", "154048.132500", "154049.132500", "154050.132500", "154051.132500", "154052.132500", "154053.132500", "154054.132500", "154055.132500", "154056.132500", "154057.132500", "154058.132500", "154059.132500", "154100.132500", "154101.132500", "154102.132500", "154103.132500", "154104.132500", "154105.132500", "154106.132500", "154107.132500", "154108.132500", "154109.132500", "154110.132500", "154111.132500", "154112.132500", "154113.132500", "154114.132500", "154115.132500", "154116.132500", "154117.132500", "154118.132500", "154119.132500", "154120.132500", "154121.132500", "154122.132500", "154123.132500", "154124.132500", "154125.132500", "154126.132500", "154127.132500", "154128.132500", "154129.132500", "154130.132500", "154131.132500", "154132.132500", "154133.132500", "154134.132500", "154135.132500", "154136.132500", "154137.132500", "154138.132500", "154139.132500", "154140.132500", "154141.132500", "154142.132500", "154143.132500", "154144.132500", "154145.132500", "154146.132500", "154147.132500", "154148.132500", "154149.132500", "154150.132500", "154151.132500", "154152.132500", "154153.132500", "154154.132500", "154155.132500", "154156.132500", "154157.132500", "154158.132500", "154159.132500", "154200.132500", "154201.132500", "154202.132500", "154203.132500", "154204.132500", "154205.132500", "154206.132500", "154207.132500", "154208.132500", "154209.132500", "154210.132500", "154211.132500", "154212.132500", "154213.132500", "154214.132500", "154215.132500", "154216.132500", "154217.132500", "154218.132500", "154219.132500", "154220.132500", "154221.132500", "154222.132500", "154223.132500", "154224.132500", "154225.132500", "154226.132500", "154227.132500", "154228.132500", "154229.132500", "154230.132500", "154231.132500", "154232.132500", "154233.132500", "154234.132500", "154235.132500", "154236.132500", "154237.132500", "154238.132500", "154239.132500", "154240.132500", "154241.132500", "154242.132500", "154243.132500", "154244.132500", "154245.132500", "154246.132500", "154247.132500", "154248.132500", "154249.132500", "154250.132500", "154251.132500", "154252.132500", "154253.132500", "154254.132500", "154255.132500", "154256.132500", "154257.132500", "154258.132500", "154259.132500", "154300.132500", "154301.132500", "154302.132500", "154303.132500", "154304.132500", "154305.132500", "154306.132500", "154307.132500", "154308.132500", "154309.132500", "154310.132500", "154311.132500", "154312.132500", "154313.132500", "154314.132500", "154315.132500", "154316.132500", "154317.132500", "154318.132500", "154319.132500", "154320.132500", "154321.132500", "154322.132500", "154323.132500", "154324.132500", "154325.132500", "154326.132500", "154327.132500", "154328.132500", "154329.132500", "154330.132500", "154331.132500", "154332.132500", "154333.132500", "154334.132500", "154335.132500", "154336.132500", "154337.132500", "154338.132500", "154339.132500", "154340.132500", "154341.132500", "154342.132500", "154343.132500", "154344.132500", "154345.132500", "154346.132500", "154347.132500", "154348.132500", "154349.132500", "154350.132500", "154351.132500", "154352.132500", "154353.132500", "154354.132500", "154355.132500", "154356.132500", "154357.132500", "154358.132500", "154359.132500", "154400.132500", "154401.132500", "154402.132500", "154403.132500", "154404.132500", "154405.132500", "154406.132500", "154407.132500", "154408.132500", "154409.132500", "154410.132500", "154411.132500", "154412.132500", "154413.132500", "154414.132500", "154415.132500", "154416.132500", "154417.132500", "154418.132500", "154419.132500", "154420.132500", "154421.132500", "154422.132500", "154423.132500", "154424.132500", "154425.132500", "154426.132500", "154427.132500", "154428.132500", "154429.132500", "154430.132500", "154431.132500", "154432.132500", "154433.132500", "154434.132500", "154435.132500", "154436.132500", "154437.132500", "154438.132500", "154439.132500", "154440.132500", "154441.132500", "154442.132500", "154443.132500", "154444.132500", "154445.132500", "154446.132500", "154447.132500", "154448.132500"],
      "ContentTime": ["154141.809000", "154141.813000", "154141.816000", "154141.819000", "154141.822000", "154141.824000", "154141.827000", "154141.830000", "154141.833000", "154141.836000", "154141.839000", "154141.842000", "154141.845000", "154141.848000", "154141.851000", "154141.854000", "154141.857000", "154141.865000", "154141.868000", "154141.871000", "154141.874000", "154141.883000", "154141.886000", "154141.889000", "154141.892000", "154141.895000", "154141.898000", "154141.900000", "154201.776000", "154201.779000", "154201.782000", "154201.785000", "154201.789000", "154201.792000", "154201.795000", "154201.798000", "154201.801000", "154201.805000", "154201.808000", "154201.811000", "154201.814000", "154201.817000", "154201.820000", "154201.823000", "154201.826000", "154201.829000", "154201.832000", "154201.835000", "154201.839000", "154201.842000", "154201.845000", "154201.848000", "154201.851000", "154201.854000", "154201.857000", "154201.860000", "154221.776000", "154221.779000", "154221.782000", "154221.785000", "154221.788000", "154221.808000", "154221.811000", "154221.814000", "154221.817000", "154221.820000", "154221.823000", "154221.826000", "154221.829000", "154221.832000", "154221.835000", "154221.838000", "154221.841000", "154221.844000", "154221.847000", "154221.850000", "154221.853000", "154221.856000", "154221.859000", "154221.862000", "154221.865000", "154221.868000", "154221.871000", "154221.873000", "154241.776000", "154241.779000", "154241.789000", "154241.792000", "154241.795000", "154241.798000", "154241.801000", "154241.804000", "154241.807000", "154241.810000", "154241.813000", "154241.816000", "154241.819000", "154241.822000", "154241.825000", "154241.828000", "154241.831000", "154241.834000", "154241.837000", "154241.840000", "154241.843000", "154241.846000", "154241.849000", "154241.851000", "154241.860000", "154241.863000", "154241.866000", "154241.869000", "154301.776000", "154301.779000", "154301.782000", "154301.785000", "154301.788000", "154301.791000", "154301.794000", "154301.797000", "154301.800000", "154301.803000", "154301.806000", "154301.809000", "154301.812000", "154301.815000", "154301.818000", "154301.821000", "154301.824000", "154301.827000", "154301.830000", "154301.833000", "154301.836000", "154301.839000", "154301.842000", "154301.845000", "154301.848000", "154301.852000", "154301.855000", "154301.858000", "154301.861000", "154321.776000", "154321.779000", "154321.782000", "154321.785000", "154321.788000", "154321.791000", "154321.794000", "154321.797000", "154321.800000", "154321.803000", "154321.806000", "154321.809000", "154321.812000", "154321.815000", "154321.818000", "154321.821000", "154321.824000", "154321.834000", "154321.837000", "154321.840000", "154321.843000", "154321.846000", "154321.849000", "154321.852000", "154321.855000", "154321.858000", "154321.861000", "154321.864000", "154341.776000", "154341.779000", "154341.782000", "154341.785000", "154341.788000", "154341.791000", "154341.794000", "154341.797000", "154341.800000", "154341.803000", "154341.806000", "154341.809000", "154341.812000", "154341.815000", "154341.818000", "154341.821000", "154341.824000", "154341.827000", "154341.830000", "154341.833000", "154341.836000", "154341.839000", "154341.842000", "154341.845000", "154341.848000", "154341.851000", "154341.854000", "154401.776000", "154401.779000", "154401.782000", "154401.785000", "154401.788000", "154401.791000", "154401.794000", "154401.797000", "154401.800000", "154401.808000", "154401.811000", "154401.814000", "154401.817000", "154401.820000", "154401.823000", "154401.826000", "154401.829000", "154401.832000", "154401.835000", "154401.838000", "154421.776000", "154421.779000", "154421.782000", "154421.785000", "154421.788000", "154421.791000", "154421.794000", "154421.797000", "154421.800000", "154421.803000", "154421.806000", "154421.809000", "154421.812000", "154421.815000", "154421.818000", "154421.820000", "154421.823000", "154421.826000", "154421.829000", "154421.848000", "154441.776000", "154441.779000", "154441.782000", "154441.785000", "154441.788000", "154441.791000", "154441.794000", "154441.797000", "154441.800000", "154441.803000", "154441.806000", "154441.809000", "154441.812000", "154441.815000", "154441.818000", "154441.821000", "154441.824000", "154441.827000", "154441.830000", "154441.833000", "154449.791000", "154449.794000", "154449.797000", "154449.800000", "154449.803000", "154449.806000", "154449.809000", "154449.812000"],
      "InstanceCreationTime": ["154141.809000", "154141.813000", "154141.816000", "154141.819000", "154141.822000", "154141.824000", "154141.827000", "154141.830000", "154141.833000", "154141.836000", "154141.839000", "154141.842000", "154141.845000", "154141.848000", "154141.851000", "154141.854000", "154141.857000", "154141.865000", "154141.868000", "154141.871000", "154141.874000", "154141.883000", "154141.886000", "154141.889000", "154141.892000", "154141.895000", "154141.898000", "154141.900000", "154201.776000", "154201.779000", "154201.782000", "154201.785000", "154201.789000", "154201.792000", "154201.795000", "154201.798000", "154201.801000", "154201.805000", "154201.808000", "154201.811000", "154201.814000", "154201.817000", "154201.820000", "154201.823000", "154201.826000", "154201.829000", "154201.832000", "154201.835000", "154201.839000", "154201.842000", "154201.845000", "154201.848000", "154201.851000", "154201.854000", "154201.857000", "154201.860000", "154221.776000", "154221.779000", "154221.782000", "154221.785000", "154221.788000", "154221.808000", "154221.811000", "154221.814000", "154221.817000", "154221.820000", "154221.823000", "154221.826000", "154221.829000", "154221.832000", "154221.835000", "154221.838000", "154221.841000", "154221.844000", "154221.847000", "154221.850000", "154221.853000", "154221.856000", "154221.859000", "154221.862000", "154221.865000", "154221.868000", "154221.871000", "154221.873000", "154241.776000", "154241.779000", "154241.789000", "154241.792000", "154241.795000", "154241.798000", "154241.801000", "154241.804000", "154241.807000", "154241.810000", "154241.813000", "154241.816000", "154241.819000", "154241.822000", "154241.825000", "154241.828000", "154241.831000", "154241.834000", "154241.837000", "154241.840000", "154241.843000", "154241.846000", "154241.849000", "154241.851000", "154241.860000", "154241.863000", "154241.866000", "154241.869000", "154301.776000", "154301.779000", "154301.782000", "154301.785000", "154301.788000", "154301.791000", "154301.794000", "154301.797000", "154301.800000", "154301.803000", "154301.806000", "154301.809000", "154301.812000", "154301.815000", "154301.818000", "154301.821000", "154301.824000", "154301.827000", "154301.830000", "154301.833000", "154301.836000", "154301.839000", "154301.842000", "154301.845000", "154301.848000", "154301.852000", "154301.855000", "154301.858000", "154301.861000", "154321.776000", "154321.779000", "154321.782000", "154321.785000", "154321.788000", "154321.791000", "154321.794000", "154321.797000", "154321.800000", "154321.803000", "154321.806000", "154321.809000", "154321.812000", "154321.815000", "154321.818000", "154321.821000", "154321.824000", "154321.834000", "154321.837000", "154321.840000", "154321.843000", "154321.846000", "154321.849000", "154321.852000", "154321.855000", "154321.858000", "154321.861000", "154321.864000", "154341.776000", "154341.779000", "154341.782000", "154341.785000", "154341.788000", "154341.791000", "154341.794000", "154341.797000", "154341.800000", "154341.803000", "154341.806000", "154341.809000", "154341.812000", "154341.815000", "154341.818000", "154341.821000", "154341.824000", "154341.827000", "154341.830000", "154341.833000", "154341.836000", "154341.839000", "154341.842000", "154341.845000", "154341.848000", "154341.851000", "154341.854000", "154401.776000", "154401.779000", "154401.782000", "154401.785000", "154401.788000", "154401.791000", "154401.794000", "154401.797000", "154401.800000", "154401.808000", "154401.811000", "154401.814000", "154401.817000", "154401.820000", "154401.823000", "154401.826000", "154401.829000", "154401.832000", "154401.835000", "154401.838000", "154421.776000", "154421.779000", "154421.782000", "154421.785000", "154421.788000", "154421.791000", "154421.794000", "154421.797000", "154421.800000", "154421.803000", "154421.806000", "154421.809000", "154421.812000", "154421.815000", "154421.818000", "154421.820000", "154421.823000", "154421.826000", "154421.829000", "154421.848000", "154441.776000", "154441.779000", "154441.782000", "154441.785000", "154441.788000", "154441.791000", "154441.794000", "154441.797000", "154441.800000", "154441.803000", "154441.806000", "154441.809000", "154441.812000", "154441.815000", "154441.818000", "154441.821000", "154441.824000", "154441.827000", "154441.830000", "154441.833000", "154449.791000", "154449.794000", "154449.797000", "154449.800000", "154449.803000", "154449.806000", "154449.809000", "154449.812000"],
      "InstanceNumber": [1, 2, 3, 4, 5, 6, 7, 8, 9, 10, 11, 12, 13, 14, 15, 16, 17, 18, 19, 20, 21, 22, 23, 24, 25, 26, 27, 28, 29, 30, 31, 32, 33, 34, 35, 36, 37, 38, 39, 40, 41, 42, 43, 44, 45, 46, 47, 48, 49, 50, 51, 52, 53, 54, 55, 56, 57, 58, 59, 60, 61, 62, 63, 64, 65, 66, 67, 68, 69, 70, 71, 72, 73, 74, 75, 76, 77, 78, 79, 80, 81, 82, 83, 84, 85, 86, 87, 88, 89, 90, 91, 92, 93, 94, 95, 96, 97, 98, 99, 100, 101, 102, 103, 104, 105, 106, 107, 108, 109, 110, 111, 112, 113, 114, 115, 116, 117, 118, 119, 120, 121, 122, 123, 124, 125, 126, 127, 128, 129, 130, 131, 132, 133, 134, 135, 136, 137, 138, 139, 140, 141, 142, 143, 144, 145, 146, 147, 148, 149, 150, 151, 152, 153, 154, 155, 156, 157, 158, 159, 160, 161, 162, 163, 164, 165, 166, 167, 168, 169, 170, 171, 172, 173, 174, 175, 176, 177, 178, 179, 180, 181, 182, 183, 184, 185, 186, 187, 188, 189, 190, 191, 192, 193, 194, 195, 196, 197, 198, 199, 200, 201, 202, 203, 204, 205, 206, 207, 208, 209, 210, 211, 212, 213, 214, 215, 216, 217, 218, 219, 220, 221, 222, 223, 224, 225, 226, 227, 228, 229, 230, 231, 232, 233, 234, 235, 236, 237, 238, 239, 240, 241, 242, 243, 244, 245, 246, 247, 248, 249, 250, 251, 252, 253, 254, 255, 256, 257, 258, 259, 260, 261, 262, 263, 264],
      "LargestImagePixelValue": [33869, 33363, 32875, 33155, 32616, 32735, 32089, 32601, 32030, 32171, 33517, 32892, 33759, 32618, 33962, 32209, 32331, 32903, 32757, 33061, 32429, 32645, 32522, 32389, 32693, 32495, 32762, 32866, 32609, 32717, 32328, 32446, 32554, 32513, 32587, 32634, 32481, 32894, 32872, 32774, 32705, 32020, 33069, 32802, 32579, 32603, 32571, 32388, 32352, 32670, 32575, 33012, 32332, 32417, 32270, 32688, 32587, 32952, 32660, 32278, 32451, 32363, 32327, 32632, 32444, 32637, 32525, 32326, 32361, 32699, 32196, 32223, 32246, 32636, 32327, 32314, 31981, 32349, 32330, 32570, 32604, 32349, 32428, 32380, 32219, 32016, 31917, 32238, 32023, 32266, 32534, 32005, 32007, 32107, 31271, 32243, 31525, 32382, 31835, 32463, 31868, 32102, 31964, 32111, 31963, 32344, 32307, 32221, 31686, 32270, 32127, 32748, 32765, 31323, 31688, 31360, 31965, 31557, 31971, 31512, 31552, 31425, 31637, 32157, 31156, 31818, 31163, 31696, 31396, 31997, 31990, 31849, 32506, 31839, 32827, 31418, 32715, 31392, 31546, 31499, 31921, 32246, 31155, 31982, 31326, 31781, 31322, 32236, 31328, 31575, 31499, 31870, 31792, 31625, 32167, 30997, 32273, 30995, 32357, 31583, 32197, 31306, 32018, 31869, 31362, 32261, 30995, 32535, 31379, 32054, 32022, 31409, 32446, 31164, 32755, 31279, 32350, 31736, 31820, 32101, 31469, 32462, 31601, 32856, 31366, 32601, 32188, 32322, 32108, 31996, 32021, 31333, 34699, 31270, 31057, 31677, 30921, 32290, 31450, 31891, 31257, 32511, 31838, 32654, 33207, 32087, 33034, 31998, 32963, 31843, 31882, 31811, 31795, 32195, 31491, 32124, 31597, 32405, 32489, 32311, 32200, 32629, 32671, 31339, 32940, 31997, 32524, 31989, 32029, 32043, 32166, 32736, 31535, 32713, 31678, 32186, 33065, 31410, 33167, 31851, 32304, 32580, 31949, 32927, 31526, 32342, 31812, 31644, 31477, 31735, 32094, 31817, 32277, 31490, 32565, 31543, 32341, 31684, 31592, 32064, 31580, 32475, 31613, 32641],
      "WindowCenter": [9616.0, 9589.0, 9574.0, 9584.0, 9572.0, 9571.0, 9556.0, 9554.0, 9541.0, 9544.0, 9563.0, 9557.0, 9564.0, 9551.0, 9562.0, 9543.0, 9535.0, 9545.0, 9539.0, 9540.0, 9543.0, 9550.0, 9552.0, 9554.0, 9555.0, 9556.0, 9562.0, 9559.0, 9545.0, 9545.0, 9538.0, 9537.0, 9551.0, 9559.0, 9562.0, 9562.0, 9555.0, 9558.0, 9549.0, 9543.0, 9541.0, 9530.0, 9548.0, 9549.0, 9553.0, 9553.0, 9555.0, 9554.0, 9550.0, 9554.0, 9553.0, 9552.0, 9540.0, 9547.0, 9548.0, 9561.0, 9555.0, 9554.0, 9548.0, 9547.0, 9546.0, 9545.0, 9538.0, 9544.0, 9537.0, 9545.0, 9545.0, 9540.0, 9547.0, 9555.0, 9557.0, 9566.0, 9565.0, 9564.0, 9550.0, 9549.0, 9543.0, 9550.0, 9558.0, 9565.0, 9564.0, 9557.0, 9541.0, 9532.0, 9530.0, 9522.0, 9523.0, 9529.0, 9531.0, 9540.0, 9553.0, 9547.0, 9549.0, 9550.0, 9538.0, 9555.0, 9543.0, 9548.0, 9535.0, 9546.0, 9533.0, 9537.0, 9530.0, 9538.0, 9533.0, 9541.0, 9541.0, 9547.0, 9535.0, 9549.0, 9549.0, 9565.0, 9558.0, 9507.0, 9567.0, 9547.0, 9551.0, 9552.0, 9551.0, 9545.0, 9552.0, 9545.0, 9552.0, 9558.0, 9540.0, 9544.0, 9531.0, 9545.0, 9546.0, 9562.0, 9570.0, 9582.0, 9588.0, 9576.0, 9584.0, 9551.0, 9559.0, 9528.0, 9528.0, 9521.0, 9526.0, 9532.0, 9515.0, 9526.0, 9519.0, 9519.0, 9518.0, 9531.0, 9519.0, 9532.0, 9520.0, 9534.0, 9529.0, 9529.0, 9534.0, 9523.0, 9541.0, 9525.0, 9545.0, 9545.0, 9552.0, 9534.0, 9545.0, 9545.0, 9539.0, 9546.0, 9534.0, 9558.0, 9540.0, 9548.0, 9546.0, 9544.0, 9561.0, 9545.0, 9568.0, 9550.0, 9562.0, 9540.0, 9539.0, 9544.0, 9533.0, 9559.0, 9558.0, 9578.0, 9560.0, 9572.0, 9558.0, 9556.0, 9546.0, 9537.0, 9529.0, 9480.0, 9566.0, 9519.0, 9515.0, 9518.0, 9507.0, 9521.0, 9502.0, 9507.0, 9503.0, 9530.0, 9527.0, 9550.0, 9556.0, 9543.0, 9549.0, 9537.0, 9550.0, 9537.0, 9546.0, 9538.0, 9539.0, 9544.0, 9532.0, 9537.0, 9533.0, 9552.0, 9553.0, 9553.0, 9553.0, 9552.0, 9550.0, 9531.0, 9549.0, 9529.0, 9542.0, 9534.0, 9529.0, 9526.0, 9527.0, 9531.0, 9512.0, 9525.0, 9512.0, 9525.0, 9537.0, 9516.0, 9546.0, 9531.0, 9546.0, 9545.0, 9541.0, 9551.0, 9535.0, 9546.0, 9532.0, 9532.0, 9518.0, 9525.0, 9528.0, 9524.0, 9536.0, 9533.0, 9551.0, 9532.0, 9544.0, 9528.0, 9530.0, 9529.0, 9530.0, 9537.0, 9533.0, 9552.0],
      "WindowWidth": [20385.0, 20321.0, 20290.0, 20303.0, 20284.0, 20280.0, 20252.0, 20244.0, 20222.0, 20223.0, 20256.0, 20244.0, 20258.0, 20235.0, 20252.0, 20218.0, 20203.0, 20218.0, 20206.0, 20211.0, 20219.0, 20234.0, 20242.0, 20248.0, 20252.0, 20255.0, 20263.0, 20256.0, 20228.0, 20227.0, 20216.0, 20210.0, 20236.0, 20252.0, 20260.0, 20263.0, 20247.0, 20247.0, 20228.0, 20216.0, 20210.0, 20193.0, 20226.0, 20228.0, 20241.0, 20240.0, 20246.0, 20245.0, 20240.0, 20243.0, 20239.0, 20236.0, 20214.0, 20230.0, 20232.0, 20257.0, 20247.0, 20242.0, 20228.0, 20226.0, 20223.0, 20222.0, 20210.0, 20220.0, 20207.0, 20222.0, 20224.0, 20216.0, 20227.0, 20243.0, 20250.0, 20270.0, 20264.0, 20261.0, 20236.0, 20231.0, 20223.0, 20236.0, 20255.0, 20267.0, 20264.0, 20248.0, 20214.0, 20193.0, 20191.0, 20175.0, 20177.0, 20189.0, 20195.0, 20214.0, 20238.0, 20229.0, 20235.0, 20238.0, 20214.0, 20242.0, 20223.0, 20230.0, 20206.0, 20224.0, 20198.0, 20205.0, 20191.0, 20206.0, 20201.0, 20217.0, 20218.0, 20228.0, 20205.0, 20230.0, 20233.0, 20264.0, 20253.0, 20144.0, 20283.0, 20233.0, 20238.0, 20240.0, 20239.0, 20229.0, 20243.0, 20232.0, 20246.0, 20256.0, 20225.0, 20227.0, 20206.0, 20230.0, 20237.0, 20268.0, 20288.0, 20315.0, 20323.0, 20302.0, 20308.0, 20243.0, 20247.0, 20186.0, 20186.0, 20176.0, 20185.0, 20197.0, 20170.0, 20188.0, 20173.0, 20172.0, 20171.0, 20192.0, 20174.0, 20196.0, 20176.0, 20201.0, 20193.0, 20195.0, 20202.0, 20185.0, 20216.0, 20193.0, 20227.0, 20230.0, 20239.0, 20207.0, 20225.0, 20224.0, 20215.0, 20227.0, 20207.0, 20250.0, 20220.0, 20235.0, 20232.0, 20232.0, 20262.0, 20235.0, 20274.0, 20241.0, 20258.0, 20217.0, 20212.0, 20221.0, 20203.0, 20251.0, 20256.0, 20296.0, 20264.0, 20282.0, 20254.0, 20245.0, 20223.0, 20206.0, 20188.0, 20076.0, 20262.0, 20168.0, 20164.0, 20165.0, 20147.0, 20165.0, 20134.0, 20139.0, 20137.0, 20187.0, 20189.0, 20231.0, 20243.0, 20219.0, 20226.0, 20208.0, 20232.0, 20210.0, 20228.0, 20213.0, 20216.0, 20222.0, 20201.0, 20207.0, 20204.0, 20238.0, 20239.0, 20239.0, 20238.0, 20233.0, 20226.0, 20195.0, 20226.0, 20191.0, 20214.0, 20197.0, 20187.0, 20181.0, 20183.0, 20189.0, 20156.0, 20179.0, 20155.0, 20179.0, 20198.0, 20166.0, 20216.0, 20196.0, 20225.0, 20224.0, 20220.0, 20233.0, 20205.0, 20221.0, 20194.0, 20195.0, 20169.0, 20181.0, 20186.0, 20179.0, 20201.0, 20198.0, 20226.0, 20193.0, 20211.0, 20180.0, 20185.0, 20183.0, 20187.0, 20202.0, 20198.0, 20230.0]
    },
    "slices": {}
  },
  "NumberOfVolumes": 264
}