{
  "AcquisitionMatrixPE": 104,
  "AcquisitionNumber": 1,
  "AcquisitionTime": "15:54:49.462500",
  "BandwidthPerPixelPhaseEncode": 16.578,
  "BaseResolution": 104,
  "BodyPartExamined": "BRAIN",
  "ConsistencyInfo": "N4_VE11C_LATEST_20160120",
  "ConversionSoftware": "dcm2niix",
  "ConversionSoftwareVersion": "v1.0.20190410  GCC6.3.0",
  "DerivedVendorReportedEchoSpacing": 0.000580009,
  "DeviceSerialNumber": "166018",
  "DwellTime": 2.1e-06,
  "EchoTime": 0.037,
  "EchoTrainLength": 104,
  "EffectiveEchoSpacing": 0.000580009,
  "FlipAngle": 68,
  "ImageComments": "Unaliased_MB6_PE3_LB",
  "ImageOrientationPatientDICOM": [0.999403, 0.0342904, 0.00416753, -0.0324551, 0.973451, -0.226581],
  "ImageType": [
    "ORIGINAL",
    "PRIMARY",
    "M",
    "MB",
    "ND",
    "MOSAIC"
],
  "ImagingFrequency": 123.191,
  "InPlanePhaseEncodingDirectionDICOM": "COL",
  "InstitutionAddress": "Washington_Place_6_NYC_NYC_US_10003",
  "InstitutionName": "NYU_-_CBI",
  "InstitutionalDepartmentName": "Department",
  "MRAcquisitionType": "2D",
  "MagneticFieldStrength": 3,
  "Manufacturer": "Siemens",
  "ManufacturersModelName": "Prisma",
  "Modality": "MR",
  "MultibandAccelerationFactor": 6,
  "PartialFourier": 1,
  "PatientPosition": "HFS",
  "PercentPhaseFOV": 100,
  "PhaseEncodingDirection": "j",
  "PhaseEncodingSteps": 104,
  "PhaseResolution": 1,
  "PixelBandwidth": 2290,
  "ProcedureStepDescription": "Investigators_Winawer",
  "ProtocolName": "task-sfprescaled_cmrr_mbepi_s6_2mm_66sl_PA_TR1.0",
  "PulseSequenceDetails": "%CustomerSeq%_cmrr_mbep2d_bold",
  "ReceiveCoilActiveElements": "HC1-7",
  "ReceiveCoilName": "HeadNeck_64",
  "ReconMatrixPE": 104,
  "RepetitionTime": 1,
  "SAR": 0.0720179,
  "ScanOptions": "FS",
  "ScanningSequence": "EP",
  "SequenceName": "epfid2d1_104",
  "SequenceVariant": "SK_SS",
  "SeriesDescription": "task-sfprescaled_cmrr_mbepi_s6_2mm_66sl_PA_TR1.0",
  "SeriesNumber": 14,
  "ShimSetting": [251, -12599, -8434, 396, -51, -72, -50, -8],
  "SliceThickness": 2,
  "SliceTiming": [0, 0.535, 0.09, 0.6225, 0.1775, 0.7125, 0.2675, 0.8025, 0.355, 0.89, 0.445, 0, 0.535, 0.09, 0.6225, 0.1775, 0.7125, 0.2675, 0.8025, 0.355, 0.89, 0.445, 0, 0.535, 0.09, 0.6225, 0.1775, 0.7125, 0.2675, 0.8025, 0.355, 0.89, 0.445, 0, 0.535, 0.09, 0.6225, 0.1775, 0.7125, 0.2675, 0.8025, 0.355, 0.89, 0.445, 0, 0.535, 0.09, 0.6225, 0.1775, 0.7125, 0.2675, 0.8025, 0.355, 0.89, 0.445, 0, 0.535, 0.09, 0.6225, 0.1775, 0.7125, 0.2675, 0.8025, 0.355, 0.89, 0.445],
  "SoftwareVersions": "syngo_MR_E11",
  "SpacingBetweenSlices": 2,
  "StationName": "AWP166018",
  "TaskName": "sfprescaled",
  "TotalReadoutTime": 0.0597409,
  "TxRefAmp": 249.599,
  "WipMemBlock": "aba3b49b-1270-4050-a1a2-8a36a547e145||Sequence: R016 ve11c/master r/8780670; Nov 27 2017 15:05:12 by eja",
  "dcmmeta_affine": [
    [-1.9988064765930176, -0.06491026282310486, 0.02365286834537983, 111.34695434570312],
    [-0.06858080625534058, 1.9469029903411865, -0.45262065529823303, -66.66215515136719],
    [0.008335058577358723, 0.4531616270542145, 1.9479668140411377, -76.0469741821289],
    [0.0, 0.0, 0.0, 1.0]
],
  "dcmmeta_reorient_transform": [
    [0.0, -1.0, 0.0, 103.0],
    [1.0, 0.0, 0.0, 0.0],
    [0.0, 0.0, 1.0, 0.0],
    [0.0, 0.0, 0.0, 1.0]
],
  "dcmmeta_shape": [104, 104, 66, 264],
  "dcmmeta_slice_dim": 2,
  "dcmmeta_version": 0.6,
  "global": {
    "const": {
      "AccessionNumber": "k5oeerc6",
      "AcquisitionMatrix": [104, 0, 0, 104],
      "AngioFlag": "N",
      "BitsAllocated": 16,
      "BitsStored": 16,
      "BodyPartExamined": "BRAIN",
      "Columns": 936,
      "EchoNumbers": 1,
      "EchoTime": 37.0,
      "EchoTrainLength": 104,
      "FlipAngle": 68.0,
      "HighBit": 15,
      "ImageOrientationPatient": [0.99940322193055, 0.03429040237546, 0.00416752921482, -0.0324551295973, 0.97345148859879, -0.2265808109872],
      "ImagePositionPatient": [-909.16201338096, -972.31010395215, 155.67652003242],
      "ImageType": [
        "ORIGINAL",
        "PRIMARY",
        "M",
        "MB",
        "ND",
        "MOSAIC"
],
      "ImagedNucleus": "1H",
      "ImagingFrequency": 123.190725,
      "InPlanePhaseEncodingDirection": "COL",
      "MRAcquisitionType": "2D",
      "MagneticFieldStrength": 3.0,
      "Manufacturer": "SIEMENS",
      "ManufacturerModelName": "Prisma",
      "Modality": "MR",
      "NumberOfAverages": 1.0,
      "NumberOfPhaseEncodingSteps": 104,
      "PercentPhaseFieldOfView": 100.0,
      "PercentSampling": 100.0,
      "PerformedProcedureStepStartTime": "153551.925000",
      "PhotometricInterpretation": "MONOCHROME2",
      "PixelBandwidth": 2290.0,
      "PixelRepresentation": 0,
      "PixelSpacing": [2.0, 2.0],
      "ProtocolName": "task-sfprescaled_cmrr_mbepi_s6_2mm_66sl_PA_TR1.0",
      "RepetitionTime": 1000.0,
      "Rows": 936,
      "SAR": 0.07201794662423,
      "SamplesPerPixel": 1,
      "ScanOptions": "FS",
      "ScanningSequence": "EP",
      "SequenceName": "epfid2d1_104",
      "SequenceVariant": [
        "SK",
        "SS"
],
      "SeriesDescription": "task-sfprescaled_cmrr_mbepi_s6_2mm_66sl_PA_TR1.0",
      "SeriesNumber": 14,
      "SeriesTime": "155541.800000",
      "SliceLocation": -57.665325382993,
      "SliceThickness": 2.0,
      "SmallestImagePixelValue": 0,
      "SoftwareVersions": "syngo MR E11",
      "SpacingBetweenSlices": 1.999999922841,
      "SpecificCharacterSet": "ISO_IR 100",
      "StudyID": "1",
      "StudyTime": "153551.820000",
      "TransmitCoilName": "Body",
      "VariableFlipAngleFlag": "N",
      "WindowCenterWidthExplanation": "Algo1",
      "dBdt": 0.0},
    "slices": {}
  },
  "time": {
    "samples": {
      "AcquisitionNumber": [1, 2, 3, 4, 5, 6, 7, 8, 9, 10, 11, 12, 13, 14, 15, 16, 17, 18, 19, 20, 21, 22, 23, 24, 25, 26, 27, 28, 29, 30, 31, 32, 33, 34, 35, 36, 37, 38, 39, 40, 41, 42, 43, 44, 45, 46, 47, 48, 49, 50, 51, 52, 53, 54, 55, 56, 57, 58, 59, 60, 61, 62, 63, 64, 65, 66, 67, 68, 69, 70, 71, 72, 73, 74, 75, 76, 77, 78, 79, 80, 81, 82, 83, 84, 85, 86, 87, 88, 89, 90, 91, 92, 93, 94, 95, 96, 97, 98, 99, 100, 101, 102, 103, 104, 105, 106, 107, 108, 109, 110, 111, 112, 113, 114, 115, 116, 117, 118, 119, 120, 121, 122, 123, 124, 125, 126, 127, 128, 129, 130, 131, 132, 133, 134, 135, 136, 137, 138, 139, 140, 141, 142, 143, 144, 145, 146, 147, 148, 149, 150, 151, 152, 153, 154, 155, 156, 157, 158, 159, 160, 161, 162, 163, 164, 165, 166, 167, 168, 169, 170, 171, 172, 173, 174, 175, 176, 177, 178, 179, 180, 181, 182, 183, 184, 185, 186, 187, 188, 189, 190, 191, 192, 193, 194, 195, 196, 197, 198, 199, 200, 201, 202, 203, 204, 205, 206, 207, 208, 209, 210, 211, 212, 213, 214, 215, 216, 217, 218, 219, 220, 221, 222, 223, 224, 225, 226, 227, 228, 229, 230, 231, 232, 233, 234, 235, 236, 237, 238, 239, 240, 241, 242, 243, 244, 245, 246, 247, 248, 249, 250, 251, 252, 253, 254, 255, 256, 257, 258, 259, 260, 261, 262, 263, 264],
      "AcquisitionTime": ["155449.462500", "155450.462500", "155451.462500", "155452.462500", "155453.462500", "155454.462500", "155455.462500", "155456.462500", "155457.462500", "155458.462500", "155459.462500", "155500.462500", "155501.462500", "155502.462500", "155503.462500", "155504.462500", "155505.462500", "155506.462500", "155507.462500", "155508.462500", "155509.462500", "155510.462500", "155511.462500", "155512.462500", "155513.462500", "155514.462500", "155515.462500", "155516.462500", "155517.462500", "155518.462500", "155519.462500", "155520.462500", "155521.462500", "155522.462500", "155523.462500", "155524.462500", "155525.462500", "155526.462500", "155527.462500", "155528.462500", "155529.462500", "155530.462500", "155531.462500", "155532.462500", "155533.462500", "155534.462500", "155535.462500", "155536.462500", "155537.462500", "155538.462500", "155539.462500", "155540.462500", "155541.462500", "155542.462500", "155543.462500", "155544.462500", "155545.462500", "155546.462500", "155547.462500", "155548.462500", "155549.462500", "155550.462500", "155551.462500", "155552.462500", "155553.462500", "155554.462500", "155555.462500", "155556.462500", "155557.462500", "155558.462500", "155559.462500", "155600.462500", "155601.462500", "155602.462500", "155603.462500", "155604.462500", "155605.462500", "155606.462500", "155607.462500", "155608.462500", "155609.462500", "155610.462500", "155611.462500", "155612.462500", "155613.462500", "155614.462500", "155615.462500", "155616.462500", "155617.462500", "155618.462500", "155619.462500", "155620.462500", "155621.462500", "155622.462500", "155623.462500", "155624.462500", "155625.462500", "155626.462500", "155627.462500", "155628.462500", "155629.462500", "155630.462500", "155631.462500", "155632.462500", "155633.462500", "155634.462500", "155635.462500", "155636.462500", "155637.462500", "155638.462500", "155639.462500", "155640.462500", "155641.462500", "155642.462500", "155643.462500", "155644.462500", "155645.462500", "155646.462500", "155647.462500", "155648.462500", "155649.462500", "155650.462500", "155651.462500", "155652.462500", "155653.462500", "155654.462500", "155655.462500", "155656.462500", "155657.462500", "155658.462500", "155659.462500", "155700.462500", "155701.462500", "155702.462500", "155703.462500", "155704.462500", "155705.462500", "155706.462500", "155707.462500", "155708.462500", "155709.462500", "155710.462500", "155711.462500", "155712.462500", "155713.462500", "155714.462500", "155715.462500", "155716.462500", "155717.462500", "155718.462500", "155719.462500", "155720.462500", "155721.462500", "155722.462500", "155723.462500", "155724.462500", "155725.462500", "155726.462500", "155727.462500", "155728.462500", "155729.462500", "155730.462500", "155731.462500", "155732.462500", "155733.462500", "155734.462500", "155735.462500", "155736.462500", "155737.462500", "155738.462500", "155739.462500", "155740.462500", "155741.462500", "155742.462500", "155743.462500", "155744.462500", "155745.462500", "155746.462500", "155747.462500", "155748.462500", "155749.462500", "155750.462500", "155751.462500", "155752.462500", "155753.462500", "155754.462500", "155755.462500", "155756.462500", "155757.462500", "155758.462500", "155759.462500", "155800.462500", "155801.462500", "155802.462500", "155803.462500", "155804.462500", "155805.462500", "155806.462500", "155807.462500", "155808.462500", "155809.462500", "155810.462500", "155811.462500", "155812.462500", "155813.462500", "155814.462500", "155815.462500", "155816.462500", "155817.462500", "155818.462500", "155819.462500", "155820.462500", "155821.462500", "155822.462500", "155823.462500", "155824.462500", "155825.462500", "155826.462500", "155827.462500", "155828.462500", "155829.462500", "155830.462500", "155831.462500", "155832.462500", "155833.462500", "155834.462500", "155835.462500", "155836.462500", "155837.462500", "155838.462500", "155839.462500", "155840.462500", "155841.462500", "155842.462500", "155843.462500", "155844.462500", "155845.462500", "155846.462500", "155847.462500", "155848.462500", "155849.462500", "155850.462500", "155851.462500", "155852.462500", "155853.462500", "155854.462500", "155855.462500", "155856.462500", "155857.462500", "155858.462500", "155859.462500", "155900.462500", "155901.462500", "155902.462500", "155903.462500", "155904.462500", "155905.462500", "155906.462500", "155907.462500", "155908.462500", "155909.462500", "155910.462500", "155911.462500", "155912.462500"],
      "ContentTime": ["155541.802000", "155541.806000", "155601.776000", "155601.779000", "155601.782000", "155601.785000", "155601.788000", "155601.791000", "155601.794000", "155601.797000", "155601.800000", "155601.811000", "155601.814000", "155601.816000", "155601.819000", "155601.822000", "155601.825000", "155601.828000", "155601.831000", "155601.834000", "155601.837000", "155601.840000", "155601.843000", "155601.846000", "155601.849000", "155601.852000", "155601.855000", "155601.858000", "155601.861000", "155601.864000", "155601.867000", "155621.776000", "155621.779000", "155621.782000", "155621.785000", "155621.788000", "155621.791000", "155621.794000", "155621.797000", "155621.800000", "155621.814000", "155621.817000", "155621.820000", "155621.823000", "155621.826000", "155621.829000", "155621.832000", "155621.835000", "155621.838000", "155621.841000", "155621.844000", "155621.847000", "155621.850000", "155621.853000", "155621.856000", "155621.859000", "155621.862000", "155621.865000", "155621.868000", "155641.776000", "155641.779000", "155641.782000", "155641.785000", "155641.788000", "155641.791000", "155641.794000", "155641.797000", "155641.800000", "155641.803000", "155641.806000", "155641.809000", "155641.812000", "155641.815000", "155641.818000", "155641.829000", "155641.832000", "155641.835000", "155641.838000", "155641.841000", "155641.844000", "155641.847000", "155641.850000", "155641.853000", "155641.855000", "155641.858000", "155641.861000", "155641.864000", "155701.776000", "155701.779000", "155701.782000", "155701.785000", "155701.788000", "155701.796000", "155701.799000", "155701.802000", "155701.805000", "155701.808000", "155701.811000", "155701.814000", "155701.817000", "155701.820000", "155701.823000", "155701.826000", "155701.829000", "155701.831000", "155701.834000", "155701.837000", "155701.840000", "155701.843000", "155701.846000", "155701.849000", "155701.852000", "155701.855000", "155701.858000", "155701.861000", "155701.864000", "155721.776000", "155721.779000", "155721.782000", "155721.785000", "155721.788000", "155721.791000", "155721.794000", "155721.797000", "155721.800000", "155721.803000", "155721.806000", "155721.809000", "155721.812000", "155721.815000", "155721.818000", "155721.821000", "155721.824000", "155721.827000", "155721.830000", "155721.846000", "155721.849000", "155721.852000", "155721.855000", "155721.858000", "155721.861000", "155721.864000", "155721.867000", "155721.870000", "155741.776000", "155741.779000", "155741.782000", "155741.785000", "155741.788000", "155741.791000", "155741.794000", "155741.797000", "155741.800000", "155741.803000", "155741.806000", "155741.809000", "155741.812000", "155741.815000", "155741.818000", "155741.821000", "155741.824000", "155741.827000", "155741.830000", "155741.833000", "155741.836000", "155741.839000", "155741.842000", "155741.845000", "155741.848000", "155741.850000", "155741.853000", "155801.775000", "155801.778000", "155801.781000", "155801.784000", "155801.787000", "155801.790000", "155801.793000", "155801.796000", "155801.799000", "155801.802000", "155801.805000", "155801.808000", "155801.811000", "155801.814000", "155801.817000", "155801.820000", "155801.823000", "155801.826000", "155801.829000", "155801.832000", "155821.776000", "155821.779000", "155821.782000", "155821.785000", "155821.788000", "155821.791000", "155821.794000", "155821.797000", "155821.807000", "155821.810000", "155821.813000", "155821.816000", "155821.819000", "155821.822000", "155821.825000", "155821.828000", "155821.831000", "155821.834000", "155821.837000", "155821.840000", "155841.776000", "155841.779000", "155841.782000", "155841.785000", "155841.788000", "155841.791000", "155841.794000", "155841.797000", "155841.800000", "155841.803000", "155841.806000", "155841.809000", "155841.812000", "155841.815000", "155841.818000", "155841.821000", "155841.824000", "155841.827000", "155841.830000", "155841.833000", "155901.776000", "155901.779000", "155901.782000", "155901.785000", "155901.788000", "155901.791000", "155901.794000", "155901.797000", "155901.800000", "155901.803000", "155901.806000", "155901.809000", "155901.812000", "155901.815000", "155901.829000", "155901.832000", "155901.835000", "155901.838000", "155901.841000", "155901.844000", "155913.886000", "155913.889000", "155913.892000", "155913.895000", "155913.899000", "155913.902000", "155913.907000", "155913.910000", "155913.913000", "155913.916000", "155913.922000", "155913.927000", "155913.931000"],
      "InstanceCreationTime": ["155541.802000", "155541.806000", "155601.776000", "155601.779000", "155601.782000", "155601.785000", "155601.788000", "155601.791000", "155601.794000", "155601.797000", "155601.800000", "155601.811000", "155601.814000", "155601.816000", "155601.819000", "155601.822000", "155601.825000", "155601.828000", "155601.831000", "155601.834000", "155601.837000", "155601.840000", "155601.843000", "155601.846000", "155601.849000", "155601.852000", "155601.855000", "155601.858000", "155601.861000", "155601.864000", "155601.867000", "155621.776000", "155621.779000", "155621.782000", "155621.785000", "155621.788000", "155621.791000", "155621.794000", "155621.797000", "155621.800000", "155621.814000", "155621.817000", "155621.820000", "155621.823000", "155621.826000", "155621.829000", "155621.832000", "155621.835000", "155621.838000", "155621.841000", "155621.844000", "155621.847000", "155621.850000", "155621.853000", "155621.856000", "155621.859000", "155621.862000", "155621.865000", "155621.868000", "155641.776000", "155641.779000", "155641.782000", "155641.785000", "155641.788000", "155641.791000", "155641.794000", "155641.797000", "155641.800000", "155641.803000", "155641.806000", "155641.809000", "155641.812000", "155641.815000", "155641.818000", "155641.829000", "155641.832000", "155641.835000", "155641.838000", "155641.841000", "155641.844000", "155641.847000", "155641.850000", "155641.853000", "155641.855000", "155641.858000", "155641.861000", "155641.864000", "155701.776000", "155701.779000", "155701.782000", "155701.785000", "155701.788000", "155701.796000", "155701.799000", "155701.802000", "155701.805000", "155701.808000", "155701.811000", "155701.814000", "155701.817000", "155701.820000", "155701.823000", "155701.826000", "155701.829000", "155701.831000", "155701.834000", "155701.837000", "155701.840000", "155701.843000", "155701.846000", "155701.849000", "155701.852000", "155701.855000", "155701.858000", "155701.861000", "155701.864000", "155721.776000", "155721.779000", "155721.782000", "155721.785000", "155721.788000", "155721.791000", "155721.794000", "155721.797000", "155721.800000", "155721.803000", "155721.806000", "155721.809000", "155721.812000", "155721.815000", "155721.818000", "155721.821000", "155721.824000", "155721.827000", "155721.830000", "155721.846000", "155721.849000", "155721.852000", "155721.855000", "155721.858000", "155721.861000", "155721.864000", "155721.867000", "155721.870000", "155741.776000", "155741.779000", "155741.782000", "155741.785000", "155741.788000", "155741.791000", "155741.794000", "155741.797000", "155741.800000", "155741.803000", "155741.806000", "155741.809000", "155741.812000", "155741.815000", "155741.818000", "155741.821000", "155741.824000", "155741.827000", "155741.830000", "155741.833000", "155741.836000", "155741.839000", "155741.842000", "155741.845000", "155741.848000", "155741.850000", "155741.853000", "155801.775000", "155801.778000", "155801.781000", "155801.784000", "155801.787000", "155801.790000", "155801.793000", "155801.796000", "155801.799000", "155801.802000", "155801.805000", "155801.808000", "155801.811000", "155801.814000", "155801.817000", "155801.820000", "155801.823000", "155801.826000", "155801.829000", "155801.832000", "155821.776000", "155821.779000", "155821.782000", "155821.785000", "155821.788000", "155821.791000", "155821.794000", "155821.797000", "155821.807000", "155821.810000", "155821.813000", "155821.816000", "155821.819000", "155821.822000", "155821.825000", "155821.828000", "155821.831000", "155821.834000", "155821.837000", "155821.840000", "155841.776000", "155841.779000", "155841.782000", "155841.785000", "155841.788000", "155841.791000", "155841.794000", "155841.797000", "155841.800000", "155841.803000", "155841.806000", "155841.809000", "155841.812000", "155841.815000", "155841.818000", "155841.821000", "155841.824000", "155841.827000", "155841.830000", "155841.833000", "155901.776000", "155901.779000", "155901.782000", "155901.785000", "155901.788000", "155901.791000", "155901.794000", "155901.797000", "155901.800000", "155901.803000", "155901.806000", "155901.809000", "155901.812000", "155901.815000", "155901.829000", "155901.832000", "155901.835000", "155901.838000", "155901.841000", "155901.844000", "155913.886000", "155913.889000", "155913.892000", "155913.895000", "155913.899000", "155913.902000", "155913.907000", "155913.910000", "155913.913000", "155913.916000", "155913.922000", "155913.927000", "155913.931000"],
      "InstanceNumber": [1, 2, 3, 4, 5, 6, 7, 8, 9, 10, 11, 12, 13, 14, 15, 16, 17, 18, 19, 20, 21, 22, 23, 24, 25, 26, 27, 28, 29, 30, 31, 32, 33, 34, 35, 36, 37, 38, 39, 40, 41, 42, 43, 44, 45, 46, 47, 48, 49, 50, 51, 52, 53, 54, 55, 56, 57, 58, 59, 60, 61, 62, 63, 64, 65, 66, 67, 68, 69, 70, 71, 72, 73, 74, 75, 76, 77, 78, 79, 80, 81, 82, 83, 84, 85, 86, 87, 88, 89, 90, 91, 92, 93, 94, 95, 96, 97, 98, 99, 100, 101, 102, 103, 104, 105, 106, 107, 108, 109, 110, 111, 112, 113, 114, 115, 116, 117, 118, 119, 120, 121, 122, 123, 124, 125, 126, 127, 128, 129, 130, 131, 132, 133, 134, 135, 136, 137, 138, 139, 140, 141, 142, 143, 144, 145, 146, 147, 148, 149, 150, 151, 152, 153, 154, 155, 156, 157, 158, 159, 160, 161, 162, 163, 164, 165, 166, 167, 168, 169, 170, 171, 172, 173, 174, 175, 176, 177, 178, 179, 180, 181, 182, 183, 184, 185, 186, 187, 188, 189, 190, 191, 192, 193, 194, 195, 196, 197, 198, 199, 200, 201, 202, 203, 204, 205, 206, 207, 208, 209, 210, 211, 212, 213, 214, 215, 216, 217, 218, 219, 220, 221, 222, 223, 224, 225, 226, 227, 228, 229, 230, 231, 232, 233, 234, 235, 236, 237, 238, 239, 240, 241, 242, 243, 244, 245, 246, 247, 248, 249, 250, 251, 252, 253, 254, 255, 256, 257, 258, 259, 260, 261, 262, 263, 264],
      "LargestImagePixelValue": [31789, 30498, 31324, 30275, 31417, 30934, 30181, 30972, 29869, 30457, 29913, 30227, 30685, 30220, 30688, 30630, 30944, 31077, 30053, 30782, 32178, 30365, 32586, 32777, 31488, 30117, 31681, 30670, 30333, 30775, 31369, 30631, 30945, 30813, 30928, 30669, 31049, 30667, 31439, 31451, 31278, 31738, 32524, 31844, 31534, 31161, 32247, 31581, 31269, 30980, 31602, 30800, 31076, 30975, 31392, 31503, 31775, 31010, 31817, 32377, 31806, 32725, 32237, 31598, 32882, 31179, 29345, 31203, 31680, 31441, 30640, 31055, 30398, 30705, 30292, 31537, 31364, 31770, 31292, 31700, 31407, 31408, 33635, 34525, 33422, 31642, 32464, 31641, 33382, 31762, 33164, 35064, 30881, 31520, 30781, 33287, 31618, 31685, 31085, 31696, 30769, 31425, 31100, 31584, 31490, 31311, 31657, 34914, 31661, 31469, 31360, 31297, 31330, 31950, 31007, 33527, 31782, 33915, 31782, 32782, 32845, 33598, 31852, 31887, 32311, 32017, 32763, 31974, 32436, 31457, 32073, 32389, 32981, 30819, 33443, 31206, 33199, 31715, 32141, 31816, 32406, 31761, 31753, 31570, 31872, 31288, 31755, 32273, 31035, 32123, 31054, 33012, 31799, 33277, 31875, 33568, 31423, 32771, 31683, 31998, 34069, 32039, 35136, 33116, 31235, 33792, 31506, 33752, 31405, 33277, 31681, 33551, 31883, 33721, 31490, 33415, 31634, 33626, 31768, 33230, 31264, 31786, 30835, 31469, 31063, 31301, 30791, 31640, 31421, 31597, 32936, 31275, 32088, 31788, 31677, 31882, 33761, 31844, 33151, 31540, 31852, 31248, 31624, 32369, 31873, 31770, 32174, 32201, 31191, 32613, 31700, 33891, 31907, 33589, 31602, 32260, 31742, 33165, 31568, 33606, 32108, 32653, 31804, 31541, 37146, 31460, 32120, 34933, 32632, 34491, 32765, 31315, 33535, 31206, 34215, 31779, 31039, 33254, 34908, 33844, 31426, 34434, 31552, 31296, 31591, 31857, 33338, 31103, 34342, 30888, 33710, 30939, 33034, 35914, 31367, 31881, 35493, 32226, 34218, 35630, 32156, 35808, 31061, 34860],
      "WindowCenter": [9618.0, 9588.0, 9597.0, 9575.0, 9587.0, 9580.0, 9567.0, 9576.0, 9550.0, 9554.0, 9533.0, 9538.0, 9549.0, 9530.0, 9540.0, 9532.0, 9539.0, 9538.0, 9527.0, 9540.0, 9563.0, 9542.0, 9571.0, 9573.0, 9556.0, 9545.0, 9571.0, 9551.0, 9544.0, 9550.0, 9555.0, 9540.0, 9539.0, 9541.0, 9538.0, 9540.0, 9540.0, 9541.0, 9565.0, 9574.0, 9584.0, 9584.0, 9587.0, 9579.0, 9564.0, 9558.0, 9568.0, 9571.0, 9563.0, 9559.0, 9563.0, 9548.0, 9554.0, 9540.0, 9553.0, 9547.0, 9558.0, 9557.0, 9578.0, 9586.0, 9580.0, 9584.0, 9577.0, 9563.0, 9580.0, 9549.0, 9522.0, 9563.0, 9570.0, 9562.0, 9548.0, 9554.0, 9541.0, 9549.0, 9534.0, 9551.0, 9535.0, 9533.0, 9542.0, 9549.0, 9554.0, 9553.0, 9575.0, 9586.0, 9566.0, 9541.0, 9543.0, 9539.0, 9555.0, 9540.0, 9565.0, 9582.0, 9536.0, 9540.0, 9479.0, 9551.0, 9533.0, 9547.0, 9534.0, 9541.0, 9528.0, 9533.0, 9526.0, 9533.0, 9527.0, 9535.0, 9551.0, 9601.0, 9569.0, 9563.0, 9563.0, 9563.0, 9564.0, 9569.0, 9550.0, 9585.0, 9553.0, 9583.0, 9559.0, 9580.0, 9587.0, 9594.0, 9576.0, 9569.0, 9574.0, 9568.0, 9572.0, 9561.0, 9563.0, 9548.0, 9558.0, 9565.0, 9571.0, 9540.0, 9576.0, 9545.0, 9575.0, 9551.0, 9558.0, 9552.0, 9557.0, 9551.0, 9559.0, 9559.0, 9566.0, 9552.0, 9552.0, 9562.0, 9545.0, 9556.0, 9537.0, 9559.0, 9532.0, 9548.0, 9537.0, 9555.0, 9551.0, 9573.0, 9572.0, 9580.0, 9596.0, 9564.0, 9588.0, 9555.0, 9528.0, 9562.0, 9528.0, 9557.0, 9535.0, 9558.0, 9542.0, 9558.0, 9540.0, 9556.0, 9533.0, 9556.0, 9524.0, 9547.0, 9523.0, 9546.0, 9526.0, 9532.0, 9521.0, 9534.0, 9528.0, 9536.0, 9531.0, 9550.0, 9543.0, 9543.0, 9560.0, 9534.0, 9541.0, 9533.0, 9532.0, 9538.0, 9562.0, 9540.0, 9557.0, 9542.0, 9549.0, 9537.0, 9544.0, 9546.0, 9539.0, 9526.0, 9539.0, 9539.0, 9528.0, 9548.0, 9545.0, 9574.0, 9560.0, 9570.0, 9547.0, 9559.0, 9544.0, 9567.0, 9535.0, 9566.0, 9548.0, 9557.0, 9546.0, 9551.0, 9609.0, 9539.0, 9541.0, 9577.0, 9538.0, 9569.0, 9547.0, 9538.0, 9570.0, 9540.0, 9573.0, 9537.0, 9523.0, 9553.0, 9577.0, 9559.0, 9530.0, 9570.0, 9536.0, 9529.0, 9528.0, 9541.0, 9550.0, 9521.0, 9555.0, 9520.0, 9549.0, 9513.0, 9553.0, 9591.0, 9547.0, 9554.0, 9584.0, 9541.0, 9556.0, 9565.0, 9524.0, 9563.0, 9512.0, 9558.0],
      "WindowWidth": [20400.0, 20339.0, 20348.0, 20307.0, 20324.0, 20312.0, 20286.0, 20296.0, 20250.0, 20252.0, 20214.0, 20220.0, 20237.0, 20204.0, 20220.0, 20202.0, 20215.0, 20213.0, 20198.0, 20222.0, 20258.0, 20226.0, 20275.0, 20279.0, 20256.0, 20239.0, 20284.0, 20250.0, 20235.0, 20247.0, 20255.0, 20226.0, 20222.0, 20226.0, 20219.0, 20224.0, 20226.0, 20228.0, 20277.0, 20297.0, 20318.0, 20316.0, 20316.0, 20299.0, 20271.0, 20262.0, 20277.0, 20285.0, 20271.0, 20266.0, 20268.0, 20240.0, 20249.0, 20225.0, 20247.0, 20238.0, 20256.0, 20261.0, 20303.0, 20316.0, 20305.0, 20305.0, 20290.0, 20265.0, 20292.0, 20240.0, 20195.0, 20269.0, 20277.0, 20263.0, 20236.0, 20245.0, 20222.0, 20238.0, 20210.0, 20235.0, 20204.0, 20198.0, 20218.0, 20235.0, 20249.0, 20248.0, 20278.0, 20295.0, 20257.0, 20214.0, 20212.0, 20207.0, 20232.0, 20215.0, 20257.0, 20285.0, 20212.0, 20214.0, 20080.0, 20240.0, 20205.0, 20228.0, 20206.0, 20219.0, 20198.0, 20205.0, 20190.0, 20202.0, 20191.0, 20206.0, 20239.0, 20328.0, 20281.0, 20271.0, 20272.0, 20271.0, 20275.0, 20283.0, 20250.0, 20305.0, 20250.0, 20298.0, 20262.0, 20299.0, 20314.0, 20323.0, 20294.0, 20279.0, 20285.0, 20275.0, 20279.0, 20262.0, 20263.0, 20238.0, 20254.0, 20268.0, 20276.0, 20225.0, 20283.0, 20230.0, 20282.0, 20242.0, 20254.0, 20243.0, 20249.0, 20237.0, 20252.0, 20254.0, 20268.0, 20243.0, 20242.0, 20256.0, 20229.0, 20247.0, 20212.0, 20244.0, 20196.0, 20217.0, 20201.0, 20233.0, 20238.0, 20283.0, 20286.0, 20303.0, 20324.0, 20266.0, 20298.0, 20238.0, 20189.0, 20244.0, 20191.0, 20237.0, 20205.0, 20242.0, 20217.0, 20241.0, 20213.0, 20236.0, 20199.0, 20233.0, 20180.0, 20213.0, 20175.0, 20214.0, 20186.0, 20195.0, 20178.0, 20201.0, 20193.0, 20211.0, 20202.0, 20236.0, 20223.0, 20221.0, 20250.0, 20206.0, 20216.0, 20199.0, 20197.0, 20207.0, 20248.0, 20213.0, 20241.0, 20220.0, 20232.0, 20213.0, 20222.0, 20220.0, 20208.0, 20185.0, 20207.0, 20208.0, 20191.0, 20227.0, 20227.0, 20276.0, 20255.0, 20269.0, 20233.0, 20250.0, 20222.0, 20260.0, 20205.0, 20256.0, 20229.0, 20245.0, 20228.0, 20235.0, 20325.0, 20211.0, 20209.0, 20267.0, 20203.0, 20253.0, 20220.0, 20211.0, 20266.0, 20219.0, 20270.0, 20206.0, 20180.0, 20229.0, 20269.0, 20241.0, 20197.0, 20259.0, 20204.0, 20192.0, 20188.0, 20209.0, 20220.0, 20173.0, 20225.0, 20171.0, 20216.0, 20158.0, 20229.0, 20297.0, 20228.0, 20240.0, 20280.0, 20205.0, 20225.0, 20235.0, 20169.0, 20231.0, 20151.0, 20228.0]
    },
    "slices": {}
  },
  "NumberOfVolumes": 264
}