{
  "AcquisitionMatrixPE": 104,
  "AcquisitionNumber": 1,
  "AcquisitionTime": "16:28:27.570000",
  "BandwidthPerPixelPhaseEncode": 16.578,
  "BaseResolution": 104,
  "BodyPartExamined": "BRAIN",
  "ConsistencyInfo": "N4_VE11C_LATEST_20160120",
  "ConversionSoftware": "dcm2niix",
  "ConversionSoftwareVersion": "v1.0.20190410  GCC6.3.0",
  "DerivedVendorReportedEchoSpacing": 0.000580009,
  "DeviceSerialNumber": "166018",
  "DwellTime": 2.1e-06,
  "EchoTime": 0.037,
  "EchoTrainLength": 104,
  "EffectiveEchoSpacing": 0.000580009,
  "FlipAngle": 68,
  "ImageComments": "Unaliased_MB6_PE3_LB",
  "ImageOrientationPatientDICOM": [0.999403, 0.0342904, 0.00416753, -0.0324551, 0.973451, -0.226581],
  "ImageType": [
    "ORIGINAL",
    "PRIMARY",
    "M",
    "MB",
    "ND",
    "MOSAIC"
],
  "ImagingFrequency": 123.191,
  "InPlanePhaseEncodingDirectionDICOM": "COL",
  "InstitutionAddress": "Washington_Place_6_NYC_NYC_US_10003",
  "InstitutionName": "NYU_-_CBI",
  "InstitutionalDepartmentName": "Department",
  "MRAcquisitionType": "2D",
  "MagneticFieldStrength": 3,
  "Manufacturer": "Siemens",
  "ManufacturersModelName": "Prisma",
  "Modality": "MR",
  "MultibandAccelerationFactor": 6,
  "PartialFourier": 1,
  "PatientPosition": "HFS",
  "PercentPhaseFOV": 100,
  "PhaseEncodingDirection": "j",
  "PhaseEncodingSteps": 104,
  "PhaseResolution": 1,
  "PixelBandwidth": 2290,
  "ProcedureStepDescription": "Investigators_Winawer",
  "ProtocolName": "task-sfprescaled_cmrr_mbepi_s6_2mm_66sl_PA_TR1.0",
  "PulseSequenceDetails": "%CustomerSeq%_cmrr_mbep2d_bold",
  "ReceiveCoilActiveElements": "HC1-7",
  "ReceiveCoilName": "HeadNeck_64",
  "ReconMatrixPE": 104,
  "RepetitionTime": 1,
  "SAR": 0.0720179,
  "ScanOptions": "FS",
  "ScanningSequence": "EP",
  "SequenceName": "epfid2d1_104",
  "SequenceVariant": "SK_SS",
  "SeriesDescription": "task-sfprescaled_cmrr_mbepi_s6_2mm_66sl_PA_TR1.0",
  "SeriesNumber": 30,
  "ShimSetting": [251, -12599, -8434, 396, -51, -72, -50, -8],
  "SliceThickness": 2,
  "SliceTiming": [0, 0.535, 0.0875, 0.6225, 0.1775, 0.7125, 0.2675, 0.8, 0.355, 0.89, 0.445, 0, 0.535, 0.0875, 0.6225, 0.1775, 0.7125, 0.2675, 0.8, 0.355, 0.89, 0.445, 0, 0.535, 0.0875, 0.6225, 0.1775, 0.7125, 0.2675, 0.8, 0.355, 0.89, 0.445, 0, 0.535, 0.0875, 0.6225, 0.1775, 0.7125, 0.2675, 0.8, 0.355, 0.89, 0.445, 0, 0.535, 0.0875, 0.6225, 0.1775, 0.7125, 0.2675, 0.8, 0.355, 0.89, 0.445, 0, 0.535, 0.0875, 0.6225, 0.1775, 0.7125, 0.2675, 0.8, 0.355, 0.89, 0.445],
  "SoftwareVersions": "syngo_MR_E11",
  "SpacingBetweenSlices": 2,
  "StationName": "AWP166018",
  "TaskName": "sfprescaled",
  "TotalReadoutTime": 0.0597409,
  "TxRefAmp": 249.599,
  "WipMemBlock": "aba3b49b-1270-4050-a1a2-8a36a547e145||Sequence: R016 ve11c/master r/8780670; Nov 27 2017 15:05:12 by eja",
  "dcmmeta_affine": [
    [-1.9988064765930176, -0.06491026282310486, 0.02365286834537983, 111.34695434570312],
    [-0.06858080625534058, 1.9469029903411865, -0.45262065529823303, -66.66215515136719],
    [0.008335058577358723, 0.4531616270542145, 1.9479668140411377, -76.0469741821289],
    [0.0, 0.0, 0.0, 1.0]
],
  "dcmmeta_reorient_transform": [
    [0.0, -1.0, 0.0, 103.0],
    [1.0, 0.0, 0.0, 0.0],
    [0.0, 0.0, 1.0, 0.0],
    [0.0, 0.0, 0.0, 1.0]
],
  "dcmmeta_shape": [104, 104, 66, 264],
  "dcmmeta_slice_dim": 2,
  "dcmmeta_version": 0.6,
  "global": {
    "const": {
      "AccessionNumber": "k5oeerc6",
      "AcquisitionMatrix": [104, 0, 0, 104],
      "AngioFlag": "N",
      "BitsAllocated": 16,
      "BitsStored": 16,
      "BodyPartExamined": "BRAIN",
      "Columns": 936,
      "EchoNumbers": 1,
      "EchoTime": 37.0,
      "EchoTrainLength": 104,
      "FlipAngle": 68.0,
      "HighBit": 15,
      "ImageOrientationPatient": [0.99940322193055, 0.03429040237546, 0.00416752921482, -0.0324551295973, 0.97345148859879, -0.2265808109872],
      "ImagePositionPatient": [-909.16201338096, -972.31010395215, 155.67652003242],
      "ImageType": [
        "ORIGINAL",
        "PRIMARY",
        "M",
        "MB",
        "ND",
        "MOSAIC"
],
      "ImagedNucleus": "1H",
      "ImagingFrequency": 123.190725,
      "InPlanePhaseEncodingDirection": "COL",
      "MRAcquisitionType": "2D",
      "MagneticFieldStrength": 3.0,
      "Manufacturer": "SIEMENS",
      "ManufacturerModelName": "Prisma",
      "Modality": "MR",
      "NumberOfAverages": 1.0,
      "NumberOfPhaseEncodingSteps": 104,
      "PercentPhaseFieldOfView": 100.0,
      "PercentSampling": 100.0,
      "PerformedProcedureStepStartTime": "153551.925000",
      "PhotometricInterpretation": "MONOCHROME2",
      "PixelBandwidth": 2290.0,
      "PixelRepresentation": 0,
      "PixelSpacing": [2.0, 2.0],
      "ProtocolName": "task-sfprescaled_cmrr_mbepi_s6_2mm_66sl_PA_TR1.0",
      "RepetitionTime": 1000.0,
      "Rows": 936,
      "SAR": 0.07201794662423,
      "SamplesPerPixel": 1,
      "ScanOptions": "FS",
      "ScanningSequence": "EP",
      "SequenceName": "epfid2d1_104",
      "SequenceVariant": [
        "SK",
        "SS"
],
      "SeriesDescription": "task-sfprescaled_cmrr_mbepi_s6_2mm_66sl_PA_TR1.0",
      "SeriesNumber": 30,
      "SeriesTime": "162941.961000",
      "SliceLocation": -57.665325382993,
      "SliceThickness": 2.0,
      "SmallestImagePixelValue": 0,
      "SoftwareVersions": "syngo MR E11",
      "SpacingBetweenSlices": 1.999999922841,
      "SpecificCharacterSet": "ISO_IR 100",
      "StudyID": "1",
      "StudyTime": "153551.820000",
      "TransmitCoilName": "Body",
      "VariableFlipAngleFlag": "N",
      "WindowCenterWidthExplanation": "Algo1",
      "dBdt": 0.0},
    "slices": {}
  },
  "time": {
    "samples": {
      "AcquisitionNumber": [1, 2, 3, 4, 5, 6, 7, 8, 9, 10, 11, 12, 13, 14, 15, 16, 17, 18, 19, 20, 21, 22, 23, 24, 25, 26, 27, 28, 29, 30, 31, 32, 33, 34, 35, 36, 37, 38, 39, 40, 41, 42, 43, 44, 45, 46, 47, 48, 49, 50, 51, 52, 53, 54, 55, 56, 57, 58, 59, 60, 61, 62, 63, 64, 65, 66, 67, 68, 69, 70, 71, 72, 73, 74, 75, 76, 77, 78, 79, 80, 81, 82, 83, 84, 85, 86, 87, 88, 89, 90, 91, 92, 93, 94, 95, 96, 97, 98, 99, 100, 101, 102, 103, 104, 105, 106, 107, 108, 109, 110, 111, 112, 113, 114, 115, 116, 117, 118, 119, 120, 121, 122, 123, 124, 125, 126, 127, 128, 129, 130, 131, 132, 133, 134, 135, 136, 137, 138, 139, 140, 141, 142, 143, 144, 145, 146, 147, 148, 149, 150, 151, 152, 153, 154, 155, 156, 157, 158, 159, 160, 161, 162, 163, 164, 165, 166, 167, 168, 169, 170, 171, 172, 173, 174, 175, 176, 177, 178, 179, 180, 181, 182, 183, 184, 185, 186, 187, 188, 189, 190, 191, 192, 193, 194, 195, 196, 197, 198, 199, 200, 201, 202, 203, 204, 205, 206, 207, 208, 209, 210, 211, 212, 213, 214, 215, 216, 217, 218, 219, 220, 221, 222, 223, 224, 225, 226, 227, 228, 229, 230, 231, 232, 233, 234, 235, 236, 237, 238, 239, 240, 241, 242, 243, 244, 245, 246, 247, 248, 249, 250, 251, 252, 253, 254, 255, 256, 257, 258, 259, 260, 261, 262, 263, 264],
      "AcquisitionTime": ["162827.570000", "162828.570000", "162829.570000", "162830.570000", "162831.570000", "162832.570000", "162833.570000", "162834.570000", "162835.570000", "162836.570000", "162837.570000", "162838.570000", "162839.570000", "162840.570000", "162841.570000", "162842.570000", "162843.570000", "162844.570000", "162845.570000", "162846.570000", "162847.570000", "162848.570000", "162849.570000", "162850.570000", "162851.570000", "162852.570000", "162853.570000", "162854.570000", "162855.570000", "162856.570000", "162857.570000", "162858.570000", "162859.570000", "162900.570000", "162901.570000", "162902.570000", "162903.570000", "162904.570000", "162905.570000", "162906.570000", "162907.570000", "162908.570000", "162909.570000", "162910.570000", "162911.570000", "162912.570000", "162913.570000", "162914.570000", "162915.570000", "162916.570000", "162917.570000", "162918.570000", "162919.570000", "162920.570000", "162921.570000", "162922.570000", "162923.570000", "162924.570000", "162925.570000", "162926.570000", "162927.570000", "162928.570000", "162929.570000", "162930.570000", "162931.570000", "162932.570000", "162933.570000", "162934.570000", "162935.570000", "162936.570000", "162937.570000", "162938.570000", "162939.570000", "162940.570000", "162941.570000", "162942.570000", "162943.570000", "162944.570000", "162945.570000", "162946.570000", "162947.570000", "162948.570000", "162949.570000", "162950.570000", "162951.570000", "162952.570000", "162953.570000", "162954.570000", "162955.570000", "162956.570000", "162957.570000", "162958.570000", "162959.570000", "163000.570000", "163001.570000", "163002.570000", "163003.570000", "163004.570000", "163005.570000", "163006.570000", "163007.570000", "163008.570000", "163009.570000", "163010.570000", "163011.570000", "163012.570000", "163013.570000", "163014.570000", "163015.570000", "163016.570000", "163017.570000", "163018.570000", "163019.570000", "163020.570000", "163021.570000", "163022.570000", "163023.570000", "163024.570000", "163025.570000", "163026.570000", "163027.570000", "163028.570000", "163029.570000", "163030.570000", "163031.570000", "163032.570000", "163033.570000", "163034.570000", "163035.570000", "163036.570000", "163037.570000", "163038.570000", "163039.570000", "163040.570000", "163041.570000", "163042.570000", "163043.570000", "163044.570000", "163045.570000", "163046.570000", "163047.570000", "163048.570000", "163049.570000", "163050.570000", "163051.570000", "163052.570000", "163053.570000", "163054.570000", "163055.570000", "163056.570000", "163057.570000", "163058.570000", "163059.570000", "163100.570000", "163101.570000", "163102.570000", "163103.570000", "163104.570000", "163105.570000", "163106.570000", "163107.570000", "163108.570000", "163109.570000", "163110.570000", "163111.570000", "163112.570000", "163113.570000", "163114.570000", "163115.570000", "163116.570000", "163117.570000", "163118.570000", "163119.570000", "163120.570000", "163121.570000", "163122.570000", "163123.570000", "163124.570000", "163125.570000", "163126.570000", "163127.570000", "163128.570000", "163129.570000", "163130.570000", "163131.570000", "163132.570000", "163133.570000", "163134.570000", "163135.570000", "163136.570000", "163137.570000", "163138.570000", "163139.570000", "163140.570000", "163141.570000", "163142.570000", "163143.570000", "163144.570000", "163145.570000", "163146.570000", "163147.570000", "163148.570000", "163149.570000", "163150.570000", "163151.570000", "163152.570000", "163153.570000", "163154.570000", "163155.570000", "163156.570000", "163157.570000", "163158.570000", "163159.570000", "163200.570000", "163201.570000", "163202.570000", "163203.570000", "163204.570000", "163205.570000", "163206.570000", "163207.570000", "163208.570000", "163209.570000", "163210.570000", "163211.570000", "163212.570000", "163213.570000", "163214.570000", "163215.570000", "163216.570000", "163217.570000", "163218.570000", "163219.570000", "163220.570000", "163221.570000", "163222.570000", "163223.570000", "163224.570000", "163225.570000", "163226.570000", "163227.570000", "163228.570000", "163229.570000", "163230.570000", "163231.570000", "163232.570000", "163233.570000", "163234.570000", "163235.570000", "163236.570000", "163237.570000", "163238.570000", "163239.570000", "163240.570000", "163241.570000", "163242.570000", "163243.570000", "163244.570000", "163245.570000", "163246.570000", "163247.570000", "163248.570000", "163249.570000", "163250.570000"],
      "ContentTime": ["162941.963000", "162941.967000", "162941.970000", "162941.973000", "162941.976000", "162941.979000", "162941.982000", "162941.985000", "162941.988000", "162941.991000", "162941.994000", "162942.001000", "162942.004000", "162942.007000", "162942.010000", "162942.013000", "162942.018000", "162942.021000", "162942.023000", "162942.026000", "162942.030000", "162942.032000", "162942.035000", "162942.039000", "162942.042000", "162942.045000", "162942.048000", "162942.051000", "162942.054000", "162942.057000", "162942.060000", "162942.063000", "162942.066000", "162942.069000", "162942.072000", "163001.936000", "163001.944000", "163001.947000", "163001.950000", "163001.954000", "163001.956000", "163001.959000", "163001.962000", "163001.965000", "163001.968000", "163001.971000", "163001.974000", "163001.977000", "163001.980000", "163001.983000", "163001.986000", "163001.989000", "163001.992000", "163001.995000", "163001.998000", "163002.002000", "163002.005000", "163002.008000", "163002.011000", "163002.014000", "163002.017000", "163002.020000", "163002.023000", "163002.026000", "163021.936000", "163021.939000", "163021.942000", "163021.945000", "163021.948000", "163021.951000", "163021.954000", "163021.957000", "163021.960000", "163021.963000", "163021.966000", "163021.969000", "163021.972000", "163021.982000", "163021.985000", "163021.988000", "163021.991000", "163021.994000", "163021.997000", "163022.001000", "163022.004000", "163022.007000", "163022.010000", "163022.013000", "163022.016000", "163022.019000", "163022.022000", "163022.025000", "163041.936000", "163041.939000", "163041.942000", "163041.945000", "163041.948000", "163041.951000", "163041.954000", "163041.957000", "163041.960000", "163041.963000", "163041.966000", "163041.969000", "163041.972000", "163041.975000", "163041.978000", "163041.981000", "163041.984000", "163041.987000", "163041.990000", "163041.993000", "163041.996000", "163042.000000", "163042.003000", "163042.006000", "163042.009000", "163042.012000", "163042.015000", "163042.018000", "163101.936000", "163101.939000", "163101.942000", "163101.945000", "163101.948000", "163101.952000", "163101.954000", "163101.957000", "163101.960000", "163101.964000", "163101.966000", "163101.969000", "163101.972000", "163101.975000", "163101.978000", "163101.981000", "163101.984000", "163101.987000", "163101.990000", "163101.993000", "163101.996000", "163102.000000", "163102.003000", "163102.006000", "163102.009000", "163102.020000", "163102.023000", "163102.026000", "163102.029000", "163121.936000", "163121.939000", "163121.942000", "163121.945000", "163121.948000", "163121.951000", "163121.954000", "163121.957000", "163121.960000", "163121.963000", "163121.966000", "163121.969000", "163121.972000", "163121.976000", "163121.979000", "163121.982000", "163121.985000", "163121.988000", "163121.991000", "163121.994000", "163121.997000", "163122.001000", "163122.004000", "163122.007000", "163141.936000", "163141.939000", "163141.942000", "163141.945000", "163141.948000", "163141.951000", "163141.954000", "163141.957000", "163141.960000", "163141.963000", "163141.966000", "163141.969000", "163141.973000", "163141.976000", "163141.979000", "163141.982000", "163141.985000", "163141.988000", "163141.991000", "163141.994000", "163201.936000", "163201.939000", "163201.942000", "163201.945000", "163201.948000", "163201.951000", "163201.954000", "163201.957000", "163201.960000", "163201.963000", "163201.966000", "163201.969000", "163201.973000", "163201.976000", "163201.979000", "163201.982000", "163201.985000", "163201.988000", "163201.991000", "163201.994000", "163221.936000", "163221.939000", "163221.942000", "163221.953000", "163221.956000", "163221.959000", "163221.962000", "163221.965000", "163221.968000", "163221.971000", "163221.992000", "163221.995000", "163221.998000", "163222.002000", "163222.014000", "163222.017000", "163222.020000", "163222.023000", "163222.026000", "163222.029000", "163241.936000", "163241.939000", "163241.942000", "163241.945000", "163241.948000", "163241.951000", "163241.954000", "163241.957000", "163241.960000", "163241.963000", "163241.966000", "163241.969000", "163241.973000", "163241.976000", "163241.979000", "163241.982000", "163241.985000", "163241.988000", "163241.991000", "163241.994000", "163252.039000", "163252.042000", "163252.045000", "163252.051000", "163252.054000", "163252.057000", "163252.061000", "163252.064000", "163252.069000", "163252.072000", "163252.075000"],
      "InstanceCreationTime": ["162941.963000", "162941.967000", "162941.970000", "162941.973000", "162941.976000", "162941.979000", "162941.982000", "162941.985000", "162941.988000", "162941.991000", "162941.994000", "162942.001000", "162942.004000", "162942.007000", "162942.010000", "162942.013000", "162942.018000", "162942.021000", "162942.023000", "162942.026000", "162942.030000", "162942.032000", "162942.035000", "162942.039000", "162942.042000", "162942.045000", "162942.048000", "162942.051000", "162942.054000", "162942.057000", "162942.060000", "162942.063000", "162942.066000", "162942.069000", "162942.072000", "163001.936000", "163001.944000", "163001.947000", "163001.950000", "163001.954000", "163001.956000", "163001.959000", "163001.962000", "163001.965000", "163001.968000", "163001.971000", "163001.974000", "163001.977000", "163001.980000", "163001.983000", "163001.986000", "163001.989000", "163001.992000", "163001.995000", "163001.998000", "163002.002000", "163002.005000", "163002.008000", "163002.011000", "163002.014000", "163002.017000", "163002.020000", "163002.023000", "163002.026000", "163021.936000", "163021.939000", "163021.942000", "163021.945000", "163021.948000", "163021.951000", "163021.954000", "163021.957000", "163021.960000", "163021.963000", "163021.966000", "163021.969000", "163021.972000", "163021.982000", "163021.985000", "163021.988000", "163021.991000", "163021.994000", "163021.997000", "163022.001000", "163022.004000", "163022.007000", "163022.010000", "163022.013000", "163022.016000", "163022.019000", "163022.022000", "163022.025000", "163041.936000", "163041.939000", "163041.942000", "163041.945000", "163041.948000", "163041.951000", "163041.954000", "163041.957000", "163041.960000", "163041.963000", "163041.966000", "163041.969000", "163041.972000", "163041.975000", "163041.978000", "163041.981000", "163041.984000", "163041.987000", "163041.990000", "163041.993000", "163041.996000", "163042.000000", "163042.003000", "163042.006000", "163042.009000", "163042.012000", "163042.015000", "163042.018000", "163101.936000", "163101.939000", "163101.942000", "163101.945000", "163101.948000", "163101.952000", "163101.954000", "163101.957000", "163101.960000", "163101.964000", "163101.966000", "163101.969000", "163101.972000", "163101.975000", "163101.978000", "163101.981000", "163101.984000", "163101.987000", "163101.990000", "163101.993000", "163101.996000", "163102.000000", "163102.003000", "163102.006000", "163102.009000", "163102.020000", "163102.023000", "163102.026000", "163102.029000", "163121.936000", "163121.939000", "163121.942000", "163121.945000", "163121.948000", "163121.951000", "163121.954000", "163121.957000", "163121.960000", "163121.963000", "163121.966000", "163121.969000", "163121.972000", "163121.976000", "163121.979000", "163121.982000", "163121.985000", "163121.988000", "163121.991000", "163121.994000", "163121.997000", "163122.001000", "163122.004000", "163122.007000", "163141.936000", "163141.939000", "163141.942000", "163141.945000", "163141.948000", "163141.951000", "163141.954000", "163141.957000", "163141.960000", "163141.963000", "163141.966000", "163141.969000", "163141.973000", "163141.976000", "163141.979000", "163141.982000", "163141.985000", "163141.988000", "163141.991000", "163141.994000", "163201.936000", "163201.939000", "163201.942000", "163201.945000", "163201.948000", "163201.951000", "163201.954000", "163201.957000", "163201.960000", "163201.963000", "163201.966000", "163201.969000", "163201.973000", "163201.976000", "163201.979000", "163201.982000", "163201.985000", "163201.988000", "163201.991000", "163201.994000", "163221.936000", "163221.939000", "163221.942000", "163221.953000", "163221.956000", "163221.959000", "163221.962000", "163221.965000", "163221.968000", "163221.971000", "163221.992000", "163221.995000", "163221.998000", "163222.002000", "163222.014000", "163222.017000", "163222.020000", "163222.023000", "163222.026000", "163222.029000", "163241.936000", "163241.939000", "163241.942000", "163241.945000", "163241.948000", "163241.951000", "163241.954000", "163241.957000", "163241.960000", "163241.963000", "163241.966000", "163241.969000", "163241.973000", "163241.976000", "163241.979000", "163241.982000", "163241.985000", "163241.988000", "163241.991000", "163241.994000", "163252.039000", "163252.042000", "163252.045000", "163252.051000", "163252.054000", "163252.057000", "163252.061000", "163252.064000", "163252.069000", "163252.072000", "163252.075000"],
      "InstanceNumber": [1, 2, 3, 4, 5, 6, 7, 8, 9, 10, 11, 12, 13, 14, 15, 16, 17, 18, 19, 20, 21, 22, 23, 24, 25, 26, 27, 28, 29, 30, 31, 32, 33, 34, 35, 36, 37, 38, 39, 40, 41, 42, 43, 44, 45, 46, 47, 48, 49, 50, 51, 52, 53, 54, 55, 56, 57, 58, 59, 60, 61, 62, 63, 64, 65, 66, 67, 68, 69, 70, 71, 72, 73, 74, 75, 76, 77, 78, 79, 80, 81, 82, 83, 84, 85, 86, 87, 88, 89, 90, 91, 92, 93, 94, 95, 96, 97, 98, 99, 100, 101, 102, 103, 104, 105, 106, 107, 108, 109, 110, 111, 112, 113, 114, 115, 116, 117, 118, 119, 120, 121, 122, 123, 124, 125, 126, 127, 128, 129, 130, 131, 132, 133, 134, 135, 136, 137, 138, 139, 140, 141, 142, 143, 144, 145, 146, 147, 148, 149, 150, 151, 152, 153, 154, 155, 156, 157, 158, 159, 160, 161, 162, 163, 164, 165, 166, 167, 168, 169, 170, 171, 172, 173, 174, 175, 176, 177, 178, 179, 180, 181, 182, 183, 184, 185, 186, 187, 188, 189, 190, 191, 192, 193, 194, 195, 196, 197, 198, 199, 200, 201, 202, 203, 204, 205, 206, 207, 208, 209, 210, 211, 212, 213, 214, 215, 216, 217, 218, 219, 220, 221, 222, 223, 224, 225, 226, 227, 228, 229, 230, 231, 232, 233, 234, 235, 236, 237, 238, 239, 240, 241, 242, 243, 244, 245, 246, 247, 248, 249, 250, 251, 252, 253, 254, 255, 256, 257, 258, 259, 260, 261, 262, 263, 264],
      "LargestImagePixelValue": [32646, 32046, 31371, 31323, 30997, 31657, 31474, 31529, 31711, 30959, 31204, 31197, 30906, 31042, 31554, 30634, 30833, 31338, 30924, 31140, 31252, 31461, 31722, 31399, 31180, 31272, 31293, 32074, 31167, 32073, 32334, 31935, 32242, 31697, 31801, 31776, 31886, 32180, 31502, 32174, 31731, 31782, 31755, 31556, 31580, 31200, 32052, 31656, 32209, 31996, 32039, 32661, 31897, 32425, 32638, 32477, 32975, 31954, 32513, 32409, 32302, 32336, 32312, 31898, 32245, 31770, 32613, 32541, 31749, 32477, 31956, 32106, 32514, 32034, 32388, 32036, 32643, 32380, 32224, 32682, 32738, 33068, 33657, 32552, 33012, 32686, 32862, 33037, 33167, 33228, 32458, 33281, 33191, 33056, 33636, 32867, 32895, 32750, 32559, 33244, 32861, 33063, 32487, 32723, 32514, 32208, 33069, 32323, 32622, 33016, 33011, 32401, 33163, 32716, 32752, 33145, 32329, 33164, 33041, 32788, 33359, 32653, 32787, 32900, 32666, 32942, 33370, 32170, 32726, 32512, 32896, 32724, 32640, 33585, 33162, 32936, 33406, 32162, 32690, 32336, 32004, 32584, 32262, 31843, 32476, 32217, 31468, 32523, 32543, 32594, 33154, 32300, 32881, 32843, 32278, 32754, 32705, 32096, 33382, 32612, 32341, 32671, 32876, 32433, 32961, 32546, 32557, 32352, 32379, 32819, 32730, 33191, 32842, 32362, 33200, 32705, 32884, 33633, 32667, 33664, 33325, 33041, 33363, 32214, 33204, 32464, 32207, 32806, 33072, 32723, 32230, 32187, 32959, 32796, 32683, 33122, 32262, 32785, 33106, 32923, 33456, 33222, 32896, 33634, 32919, 32838, 33351, 32626, 33064, 33049, 32363, 33053, 33465, 33171, 33192, 32867, 33219, 33190, 32825, 33623, 33137, 32739, 33161, 32822, 33315, 33313, 33235, 32909, 32870, 34124, 33708, 34474, 33505, 32810, 33101, 33522, 32886, 33245, 33482, 32893, 33617, 33208, 32672, 33357, 33108, 33246, 34121, 33153, 33346, 33093, 33423, 33711, 33107, 33317, 32943, 32965, 33472, 33114, 33084, 33640, 32565, 33713, 32643, 33414],
      "WindowCenter": [9636.0, 9603.0, 9581.0, 9563.0, 9554.0, 9560.0, 9560.0, 9576.0, 9583.0, 9571.0, 9576.0, 9555.0, 9543.0, 9540.0, 9537.0, 9524.0, 9533.0, 9553.0, 9550.0, 9553.0, 9565.0, 9558.0, 9556.0, 9550.0, 9549.0, 9546.0, 9545.0, 9550.0, 9530.0, 9551.0, 9558.0, 9561.0, 9560.0, 9554.0, 9553.0, 9545.0, 9550.0, 9557.0, 9548.0, 9567.0, 9561.0, 9554.0, 9545.0, 9544.0, 9542.0, 9536.0, 9541.0, 9541.0, 9548.0, 9551.0, 9570.0, 9601.0, 9591.0, 9599.0, 9595.0, 9586.0, 9583.0, 9560.0, 9557.0, 9548.0, 9554.0, 9547.0, 9538.0, 9531.0, 9529.0, 9522.0, 9535.0, 9542.0, 9534.0, 9547.0, 9549.0, 9549.0, 9555.0, 9541.0, 9547.0, 9547.0, 9555.0, 9548.0, 9554.0, 9554.0, 9555.0, 9563.0, 9575.0, 9562.0, 9560.0, 9546.0, 9554.0, 9563.0, 9578.0, 9577.0, 9559.0, 9562.0, 9560.0, 9554.0, 9557.0, 9550.0, 9549.0, 9542.0, 9553.0, 9569.0, 9578.0, 9572.0, 9556.0, 9550.0, 9544.0, 9538.0, 9544.0, 9536.0, 9545.0, 9552.0, 9563.0, 9548.0, 9567.0, 9555.0, 9563.0, 9569.0, 9551.0, 9561.0, 9554.0, 9553.0, 9560.0, 9554.0, 9560.0, 9570.0, 9563.0, 9571.0, 9569.0, 9557.0, 9555.0, 9547.0, 9559.0, 9554.0, 9556.0, 9575.0, 9560.0, 9554.0, 9551.0, 9529.0, 9534.0, 9526.0, 9518.0, 9525.0, 9517.0, 9520.0, 9534.0, 9544.0, 9535.0, 9561.0, 9553.0, 9552.0, 9551.0, 9535.0, 9540.0, 9541.0, 9538.0, 9561.0, 9571.0, 9567.0, 9579.0, 9565.0, 9557.0, 9555.0, 9552.0, 9539.0, 9550.0, 9542.0, 9542.0, 9541.0, 9545.0, 9550.0, 9552.0, 9558.0, 9551.0, 9547.0, 9560.0, 9546.0, 9561.0, 9574.0, 9563.0, 9577.0, 9570.0, 9563.0, 9561.0, 9545.0, 9549.0, 9527.0, 9527.0, 9542.0, 9557.0, 9563.0, 9557.0, 9551.0, 9553.0, 9537.0, 9536.0, 9540.0, 9519.0, 9526.0, 9539.0, 9534.0, 9555.0, 9550.0, 9552.0, 9558.0, 9545.0, 9544.0, 9548.0, 9534.0, 9534.0, 9539.0, 9528.0, 9541.0, 9548.0, 9550.0, 9551.0, 9545.0, 9551.0, 9557.0, 9552.0, 9560.0, 9553.0, 9549.0, 9561.0, 9554.0, 9554.0, 9544.0, 9548.0, 9544.0, 9542.0, 9556.0, 9549.0, 9562.0, 9558.0, 9555.0, 9563.0, 9579.0, 9566.0, 9573.0, 9570.0, 9562.0, 9560.0, 9552.0, 9545.0, 9559.0, 9545.0, 9553.0, 9563.0, 9551.0, 9550.0, 9543.0, 9541.0, 9547.0, 9532.0, 9532.0, 9523.0, 9523.0, 9535.0, 9522.0, 9529.0, 9528.0, 9525.0, 9538.0, 9527.0, 9540.0],
      "WindowWidth": [20428.0, 20357.0, 20301.0, 20262.0, 20243.0, 20255.0, 20256.0, 20289.0, 20303.0, 20282.0, 20286.0, 20244.0, 20215.0, 20207.0, 20201.0, 20179.0, 20198.0, 20239.0, 20237.0, 20249.0, 20266.0, 20254.0, 20249.0, 20237.0, 20235.0, 20227.0, 20225.0, 20233.0, 20197.0, 20238.0, 20251.0, 20258.0, 20256.0, 20245.0, 20239.0, 20224.0, 20232.0, 20248.0, 20235.0, 20269.0, 20258.0, 20243.0, 20226.0, 20223.0, 20218.0, 20207.0, 20214.0, 20216.0, 20228.0, 20238.0, 20277.0, 20338.0, 20323.0, 20336.0, 20323.0, 20302.0, 20291.0, 20245.0, 20238.0, 20221.0, 20231.0, 20217.0, 20201.0, 20185.0, 20182.0, 20168.0, 20192.0, 20206.0, 20199.0, 20221.0, 20229.0, 20227.0, 20235.0, 20208.0, 20219.0, 20219.0, 20234.0, 20223.0, 20233.0, 20234.0, 20239.0, 20254.0, 20275.0, 20248.0, 20243.0, 20217.0, 20232.0, 20252.0, 20281.0, 20279.0, 20247.0, 20246.0, 20239.0, 20230.0, 20235.0, 20220.0, 20218.0, 20204.0, 20229.0, 20261.0, 20282.0, 20271.0, 20239.0, 20224.0, 20210.0, 20200.0, 20209.0, 20197.0, 20213.0, 20223.0, 20255.0, 20225.0, 20257.0, 20238.0, 20255.0, 20264.0, 20235.0, 20248.0, 20237.0, 20232.0, 20244.0, 20235.0, 20248.0, 20268.0, 20255.0, 20267.0, 20262.0, 20242.0, 20235.0, 20221.0, 20240.0, 20236.0, 20241.0, 20273.0, 20245.0, 20232.0, 20221.0, 20181.0, 20185.0, 20173.0, 20159.0, 20170.0, 20156.0, 20164.0, 20192.0, 20216.0, 20207.0, 20250.0, 20233.0, 20226.0, 20225.0, 20192.0, 20200.0, 20202.0, 20205.0, 20249.0, 20271.0, 20266.0, 20284.0, 20258.0, 20241.0, 20236.0, 20226.0, 20204.0, 20220.0, 20203.0, 20204.0, 20204.0, 20214.0, 20222.0, 20228.0, 20237.0, 20228.0, 20221.0, 20245.0, 20220.0, 20247.0, 20269.0, 20254.0, 20277.0, 20264.0, 20252.0, 20246.0, 20214.0, 20215.0, 20175.0, 20175.0, 20205.0, 20238.0, 20253.0, 20244.0, 20233.0, 20230.0, 20198.0, 20194.0, 20199.0, 20163.0, 20173.0, 20200.0, 20191.0, 20232.0, 20223.0, 20229.0, 20239.0, 20217.0, 20211.0, 20215.0, 20187.0, 20187.0, 20196.0, 20181.0, 20204.0, 20217.0, 20221.0, 20225.0, 20216.0, 20223.0, 20235.0, 20227.0, 20243.0, 20230.0, 20226.0, 20245.0, 20230.0, 20229.0, 20208.0, 20212.0, 20206.0, 20202.0, 20227.0, 20215.0, 20237.0, 20235.0, 20236.0, 20254.0, 20284.0, 20263.0, 20273.0, 20265.0, 20249.0, 20242.0, 20226.0, 20213.0, 20239.0, 20215.0, 20229.0, 20246.0, 20224.0, 20222.0, 20210.0, 20205.0, 20214.0, 20183.0, 20182.0, 20161.0, 20161.0, 20181.0, 20158.0, 20172.0, 20171.0, 20169.0, 20191.0, 20174.0, 20196.0]
    },
    "slices": {}
  },
  "NumberOfVolumes": 264
}