{
  "AcquisitionMatrixPE": 104,
  "AcquisitionNumber": 1,
  "AcquisitionTime": "16:04:37.490000",
  "BandwidthPerPixelPhaseEncode": 16.578,
  "BaseResolution": 104,
  "BodyPartExamined": "BRAIN",
  "ConsistencyInfo": "N4_VE11C_LATEST_20160120",
  "ConversionSoftware": "dcm2niix",
  "ConversionSoftwareVersion": "v1.0.20190410  GCC6.3.0",
  "DerivedVendorReportedEchoSpacing": 0.000580009,
  "DeviceSerialNumber": "166018",
  "DwellTime": 2.1e-06,
  "EchoTime": 0.037,
  "EchoTrainLength": 104,
  "EffectiveEchoSpacing": 0.000580009,
  "FlipAngle": 68,
  "ImageComments": "Unaliased_MB6_PE3_LB",
  "ImageOrientationPatientDICOM": [0.999403, 0.0342904, 0.00416753, -0.0324551, 0.973451, -0.226581],
  "ImageType": [
    "ORIGINAL",
    "PRIMARY",
    "M",
    "MB",
    "ND",
    "MOSAIC"
],
  "ImagingFrequency": 123.191,
  "InPlanePhaseEncodingDirectionDICOM": "COL",
  "InstitutionAddress": "Washington_Place_6_NYC_NYC_US_10003",
  "InstitutionName": "NYU_-_CBI",
  "InstitutionalDepartmentName": "Department",
  "MRAcquisitionType": "2D",
  "MagneticFieldStrength": 3,
  "Manufacturer": "Siemens",
  "ManufacturersModelName": "Prisma",
  "Modality": "MR",
  "MultibandAccelerationFactor": 6,
  "PartialFourier": 1,
  "PatientPosition": "HFS",
  "PercentPhaseFOV": 100,
  "PhaseEncodingDirection": "j",
  "PhaseEncodingSteps": 104,
  "PhaseResolution": 1,
  "PixelBandwidth": 2290,
  "ProcedureStepDescription": "Investigators_Winawer",
  "ProtocolName": "task-sfprescaled_cmrr_mbepi_s6_2mm_66sl_PA_TR1.0",
  "PulseSequenceDetails": "%CustomerSeq%_cmrr_mbep2d_bold",
  "ReceiveCoilActiveElements": "HC1-7",
  "ReceiveCoilName": "HeadNeck_64",
  "ReconMatrixPE": 104,
  "RepetitionTime": 1,
  "SAR": 0.0720179,
  "ScanOptions": "FS",
  "ScanningSequence": "EP",
  "SequenceName": "epfid2d1_104",
  "SequenceVariant": "SK_SS",
  "SeriesDescription": "task-sfprescaled_cmrr_mbepi_s6_2mm_66sl_PA_TR1.0",
  "SeriesNumber": 18,
  "ShimSetting": [251, -12599, -8434, 396, -51, -72, -50, -8],
  "SliceThickness": 2,
  "SliceTiming": [0, 0.5325, 0.0875, 0.6225, 0.1775, 0.7125, 0.2675, 0.8, 0.355, 0.89, 0.445, 0, 0.5325, 0.0875, 0.6225, 0.1775, 0.7125, 0.2675, 0.8, 0.355, 0.89, 0.445, 0, 0.5325, 0.0875, 0.6225, 0.1775, 0.7125, 0.2675, 0.8, 0.355, 0.89, 0.445, 0, 0.5325, 0.0875, 0.6225, 0.1775, 0.7125, 0.2675, 0.8, 0.355, 0.89, 0.445, 0, 0.5325, 0.0875, 0.6225, 0.1775, 0.7125, 0.2675, 0.8, 0.355, 0.89, 0.445, 0, 0.5325, 0.0875, 0.6225, 0.1775, 0.7125, 0.2675, 0.8, 0.355, 0.89, 0.445],
  "SoftwareVersions": "syngo_MR_E11",
  "SpacingBetweenSlices": 2,
  "StationName": "AWP166018",
  "TaskName": "sfprescaled",
  "TotalReadoutTime": 0.0597409,
  "TxRefAmp": 249.599,
  "WipMemBlock": "aba3b49b-1270-4050-a1a2-8a36a547e145||Sequence: R016 ve11c/master r/8780670; Nov 27 2017 15:05:12 by eja",
  "dcmmeta_affine": [
    [-1.9988064765930176, -0.06491026282310486, 0.02365286834537983, 111.34695434570312],
    [-0.06858080625534058, 1.9469029903411865, -0.45262065529823303, -66.66215515136719],
    [0.008335058577358723, 0.4531616270542145, 1.9479668140411377, -76.0469741821289],
    [0.0, 0.0, 0.0, 1.0]
],
  "dcmmeta_reorient_transform": [
    [0.0, -1.0, 0.0, 103.0],
    [1.0, 0.0, 0.0, 0.0],
    [0.0, 0.0, 1.0, 0.0],
    [0.0, 0.0, 0.0, 1.0]
],
  "dcmmeta_shape": [104, 104, 66, 264],
  "dcmmeta_slice_dim": 2,
  "dcmmeta_version": 0.6,
  "global": {
    "const": {
      "AccessionNumber": "k5oeerc6",
      "AcquisitionMatrix": [104, 0, 0, 104],
      "AngioFlag": "N",
      "BitsAllocated": 16,
      "BitsStored": 16,
      "BodyPartExamined": "BRAIN",
      "Columns": 936,
      "EchoNumbers": 1,
      "EchoTime": 37.0,
      "EchoTrainLength": 104,
      "FlipAngle": 68.0,
      "HighBit": 15,
      "ImageOrientationPatient": [0.99940322193055, 0.03429040237546, 0.00416752921482, -0.0324551295973, 0.97345148859879, -0.2265808109872],
      "ImagePositionPatient": [-909.16201338096, -972.31010395215, 155.67652003242],
      "ImageType": [
        "ORIGINAL",
        "PRIMARY",
        "M",
        "MB",
        "ND",
        "MOSAIC"
],
      "ImagedNucleus": "1H",
      "ImagingFrequency": 123.190725,
      "InPlanePhaseEncodingDirection": "COL",
      "MRAcquisitionType": "2D",
      "MagneticFieldStrength": 3.0,
      "Manufacturer": "SIEMENS",
      "ManufacturerModelName": "Prisma",
      "Modality": "MR",
      "NumberOfAverages": 1.0,
      "NumberOfPhaseEncodingSteps": 104,
      "PercentPhaseFieldOfView": 100.0,
      "PercentSampling": 100.0,
      "PerformedProcedureStepStartTime": "153551.925000",
      "PhotometricInterpretation": "MONOCHROME2",
      "PixelBandwidth": 2290.0,
      "PixelRepresentation": 0,
      "PixelSpacing": [2.0, 2.0],
      "ProtocolName": "task-sfprescaled_cmrr_mbepi_s6_2mm_66sl_PA_TR1.0",
      "RepetitionTime": 1000.0,
      "Rows": 936,
      "SAR": 0.07201794662423,
      "SamplesPerPixel": 1,
      "ScanOptions": "FS",
      "ScanningSequence": "EP",
      "SequenceName": "epfid2d1_104",
      "SequenceVariant": [
        "SK",
        "SS"
],
      "SeriesDescription": "task-sfprescaled_cmrr_mbepi_s6_2mm_66sl_PA_TR1.0",
      "SeriesNumber": 18,
      "SeriesTime": "160541.966000",
      "SliceLocation": -57.665325382993,
      "SliceThickness": 2.0,
      "SmallestImagePixelValue": 0,
      "SoftwareVersions": "syngo MR E11",
      "SpacingBetweenSlices": 1.999999922841,
      "SpecificCharacterSet": "ISO_IR 100",
      "StudyID": "1",
      "StudyTime": "153551.820000",
      "TransmitCoilName": "Body",
      "VariableFlipAngleFlag": "N",
      "WindowCenterWidthExplanation": "Algo1",
      "dBdt": 0.0},
    "slices": {}
  },
  "time": {
    "samples": {
      "AcquisitionNumber": [1, 2, 3, 4, 5, 6, 7, 8, 9, 10, 11, 12, 13, 14, 15, 16, 17, 18, 19, 20, 21, 22, 23, 24, 25, 26, 27, 28, 29, 30, 31, 32, 33, 34, 35, 36, 37, 38, 39, 40, 41, 42, 43, 44, 45, 46, 47, 48, 49, 50, 51, 52, 53, 54, 55, 56, 57, 58, 59, 60, 61, 62, 63, 64, 65, 66, 67, 68, 69, 70, 71, 72, 73, 74, 75, 76, 77, 78, 79, 80, 81, 82, 83, 84, 85, 86, 87, 88, 89, 90, 91, 92, 93, 94, 95, 96, 97, 98, 99, 100, 101, 102, 103, 104, 105, 106, 107, 108, 109, 110, 111, 112, 113, 114, 115, 116, 117, 118, 119, 120, 121, 122, 123, 124, 125, 126, 127, 128, 129, 130, 131, 132, 133, 134, 135, 136, 137, 138, 139, 140, 141, 142, 143, 144, 145, 146, 147, 148, 149, 150, 151, 152, 153, 154, 155, 156, 157, 158, 159, 160, 161, 162, 163, 164, 165, 166, 167, 168, 169, 170, 171, 172, 173, 174, 175, 176, 177, 178, 179, 180, 181, 182, 183, 184, 185, 186, 187, 188, 189, 190, 191, 192, 193, 194, 195, 196, 197, 198, 199, 200, 201, 202, 203, 204, 205, 206, 207, 208, 209, 210, 211, 212, 213, 214, 215, 216, 217, 218, 219, 220, 221, 222, 223, 224, 225, 226, 227, 228, 229, 230, 231, 232, 233, 234, 235, 236, 237, 238, 239, 240, 241, 242, 243, 244, 245, 246, 247, 248, 249, 250, 251, 252, 253, 254, 255, 256, 257, 258, 259, 260, 261, 262, 263, 264],
      "AcquisitionTime": ["160437.490000", "160438.490000", "160439.490000", "160440.490000", "160441.490000", "160442.490000", "160443.490000", "160444.490000", "160445.490000", "160446.490000", "160447.490000", "160448.490000", "160449.490000", "160450.490000", "160451.490000", "160452.490000", "160453.490000", "160454.490000", "160455.490000", "160456.490000", "160457.490000", "160458.490000", "160459.490000", "160500.490000", "160501.490000", "160502.490000", "160503.490000", "160504.490000", "160505.490000", "160506.490000", "160507.490000", "160508.490000", "160509.490000", "160510.490000", "160511.490000", "160512.490000", "160513.490000", "160514.490000", "160515.490000", "160516.490000", "160517.490000", "160518.490000", "160519.490000", "160520.490000", "160521.490000", "160522.490000", "160523.490000", "160524.490000", "160525.490000", "160526.490000", "160527.490000", "160528.490000", "160529.490000", "160530.490000", "160531.490000", "160532.490000", "160533.490000", "160534.490000", "160535.490000", "160536.490000", "160537.490000", "160538.490000", "160539.490000", "160540.490000", "160541.490000", "160542.490000", "160543.490000", "160544.490000", "160545.490000", "160546.490000", "160547.490000", "160548.490000", "160549.490000", "160550.490000", "160551.490000", "160552.490000", "160553.490000", "160554.490000", "160555.490000", "160556.490000", "160557.490000", "160558.490000", "160559.490000", "160600.490000", "160601.490000", "160602.490000", "160603.490000", "160604.490000", "160605.490000", "160606.490000", "160607.490000", "160608.490000", "160609.490000", "160610.490000", "160611.490000", "160612.490000", "160613.490000", "160614.490000", "160615.490000", "160616.490000", "160617.490000", "160618.490000", "160619.490000", "160620.490000", "160621.490000", "160622.490000", "160623.490000", "160624.490000", "160625.490000", "160626.490000", "160627.490000", "160628.490000", "160629.490000", "160630.490000", "160631.490000", "160632.490000", "160633.490000", "160634.490000", "160635.490000", "160636.490000", "160637.490000", "160638.490000", "160639.490000", "160640.490000", "160641.490000", "160642.490000", "160643.490000", "160644.490000", "160645.490000", "160646.490000", "160647.490000", "160648.490000", "160649.490000", "160650.490000", "160651.490000", "160652.490000", "160653.490000", "160654.490000", "160655.490000", "160656.490000", "160657.490000", "160658.490000", "160659.490000", "160700.490000", "160701.490000", "160702.490000", "160703.490000", "160704.490000", "160705.490000", "160706.490000", "160707.490000", "160708.490000", "160709.490000", "160710.490000", "160711.490000", "160712.490000", "160713.490000", "160714.490000", "160715.490000", "160716.490000", "160717.490000", "160718.490000", "160719.490000", "160720.490000", "160721.490000", "160722.490000", "160723.490000", "160724.490000", "160725.490000", "160726.490000", "160727.490000", "160728.490000", "160729.490000", "160730.490000", "160731.490000", "160732.490000", "160733.490000", "160734.490000", "160735.490000", "160736.490000", "160737.490000", "160738.490000", "160739.490000", "160740.490000", "160741.490000", "160742.490000", "160743.490000", "160744.490000", "160745.490000", "160746.490000", "160747.490000", "160748.490000", "160749.490000", "160750.490000", "160751.490000", "160752.490000", "160753.490000", "160754.490000", "160755.490000", "160756.490000", "160757.490000", "160758.490000", "160759.490000", "160800.490000", "160801.490000", "160802.490000", "160803.490000", "160804.490000", "160805.490000", "160806.490000", "160807.490000", "160808.490000", "160809.490000", "160810.490000", "160811.490000", "160812.490000", "160813.490000", "160814.490000", "160815.490000", "160816.490000", "160817.490000", "160818.490000", "160819.490000", "160820.490000", "160821.490000", "160822.490000", "160823.490000", "160824.490000", "160825.490000", "160826.490000", "160827.490000", "160828.490000", "160829.490000", "160830.490000", "160831.490000", "160832.490000", "160833.490000", "160834.490000", "160835.490000", "160836.490000", "160837.490000", "160838.490000", "160839.490000", "160840.490000", "160841.490000", "160842.490000", "160843.490000", "160844.490000", "160845.490000", "160846.490000", "160847.490000", "160848.490000", "160849.490000", "160850.490000", "160851.490000", "160852.490000", "160853.490000", "160854.490000", "160855.490000", "160856.490000", "160857.490000", "160858.490000", "160859.490000", "160900.490000"],
      "ContentTime": ["160541.969000", "160541.972000", "160541.976000", "160541.978000", "160541.981000", "160541.984000", "160541.987000", "160541.990000", "160541.993000", "160541.996000", "160542.000000", "160542.003000", "160542.006000", "160542.009000", "160542.012000", "160542.015000", "160542.018000", "160542.027000", "160542.030000", "160542.033000", "160601.936000", "160601.939000", "160601.949000", "160601.952000", "160601.955000", "160601.958000", "160601.961000", "160601.964000", "160601.967000", "160601.970000", "160601.973000", "160601.976000", "160601.979000", "160601.982000", "160601.984000", "160601.987000", "160601.990000", "160601.993000", "160601.996000", "160602.000000", "160602.003000", "160602.006000", "160602.009000", "160602.012000", "160602.015000", "160602.018000", "160602.021000", "160602.024000", "160621.936000", "160621.939000", "160621.942000", "160621.945000", "160621.948000", "160621.951000", "160621.954000", "160621.957000", "160621.960000", "160621.963000", "160621.966000", "160621.969000", "160621.972000", "160621.975000", "160621.978000", "160621.981000", "160621.984000", "160621.987000", "160621.990000", "160622.004000", "160622.007000", "160622.010000", "160622.029000", "160622.032000", "160622.035000", "160622.038000", "160622.041000", "160622.044000", "160641.936000", "160641.939000", "160641.942000", "160641.945000", "160641.948000", "160641.951000", "160641.954000", "160641.957000", "160641.960000", "160641.963000", "160641.966000", "160641.969000", "160641.972000", "160641.975000", "160641.978000", "160641.981000", "160641.984000", "160641.987000", "160641.989000", "160641.992000", "160641.995000", "160641.998000", "160642.002000", "160642.005000", "160642.008000", "160642.011000", "160642.014000", "160642.017000", "160642.020000", "160701.936000", "160701.939000", "160701.942000", "160701.945000", "160701.948000", "160701.951000", "160701.954000", "160701.957000", "160701.960000", "160701.968000", "160701.981000", "160701.984000", "160701.987000", "160701.991000", "160701.993000", "160701.996000", "160702.000000", "160702.003000", "160702.007000", "160702.010000", "160702.012000", "160702.016000", "160702.018000", "160702.021000", "160702.024000", "160702.027000", "160702.030000", "160702.033000", "160721.936000", "160721.939000", "160721.942000", "160721.945000", "160721.948000", "160721.951000", "160721.954000", "160721.958000", "160721.962000", "160721.965000", "160721.968000", "160721.971000", "160721.974000", "160721.977000", "160721.980000", "160721.995000", "160721.998000", "160722.001000", "160722.004000", "160722.007000", "160722.010000", "160722.013000", "160722.016000", "160722.019000", "160722.022000", "160722.025000", "160722.028000", "160722.031000", "160741.936000", "160741.939000", "160741.942000", "160741.945000", "160741.948000", "160741.951000", "160741.954000", "160741.957000", "160741.960000", "160741.963000", "160741.966000", "160741.969000", "160741.972000", "160741.975000", "160741.978000", "160741.981000", "160741.984000", "160741.987000", "160741.990000", "160741.993000", "160741.996000", "160742.000000", "160742.003000", "160801.936000", "160801.939000", "160801.942000", "160801.945000", "160801.948000", "160801.951000", "160801.954000", "160801.957000", "160801.960000", "160801.963000", "160801.966000", "160801.969000", "160801.972000", "160801.975000", "160801.978000", "160801.981000", "160801.984000", "160801.987000", "160801.990000", "160801.993000", "160821.936000", "160821.939000", "160821.942000", "160821.945000", "160821.948000", "160821.951000", "160821.954000", "160821.957000", "160821.960000", "160821.963000", "160821.966000", "160821.969000", "160821.972000", "160821.975000", "160821.978000", "160821.981000", "160821.984000", "160821.987000", "160821.990000", "160821.993000", "160841.936000", "160841.939000", "160841.942000", "160841.945000", "160841.948000", "160841.951000", "160841.954000", "160841.957000", "160841.960000", "160841.963000", "160841.965000", "160841.968000", "160841.971000", "160841.974000", "160841.977000", "160841.980000", "160841.983000", "160841.986000", "160841.989000", "160841.992000", "160901.966000", "160901.969000", "160901.972000", "160901.975000", "160901.979000", "160901.982000", "160901.985000", "160901.988000", "160901.991000", "160901.994000", "160901.997000", "160902.009000", "160902.012000", "160902.015000", "160902.018000", "160902.021000", "160902.024000", "160902.027000", "160902.030000", "160902.033000"],
      "InstanceCreationTime": ["160541.969000", "160541.972000", "160541.976000", "160541.978000", "160541.981000", "160541.984000", "160541.987000", "160541.990000", "160541.993000", "160541.996000", "160542.000000", "160542.003000", "160542.006000", "160542.009000", "160542.012000", "160542.015000", "160542.018000", "160542.027000", "160542.030000", "160542.033000", "160601.936000", "160601.939000", "160601.949000", "160601.952000", "160601.955000", "160601.958000", "160601.961000", "160601.964000", "160601.967000", "160601.970000", "160601.973000", "160601.976000", "160601.979000", "160601.982000", "160601.984000", "160601.987000", "160601.990000", "160601.993000", "160601.996000", "160602.000000", "160602.003000", "160602.006000", "160602.009000", "160602.012000", "160602.015000", "160602.018000", "160602.021000", "160602.024000", "160621.936000", "160621.939000", "160621.942000", "160621.945000", "160621.948000", "160621.951000", "160621.954000", "160621.957000", "160621.960000", "160621.963000", "160621.966000", "160621.969000", "160621.972000", "160621.975000", "160621.978000", "160621.981000", "160621.984000", "160621.987000", "160621.990000", "160622.004000", "160622.007000", "160622.010000", "160622.029000", "160622.032000", "160622.035000", "160622.038000", "160622.041000", "160622.044000", "160641.936000", "160641.939000", "160641.942000", "160641.945000", "160641.948000", "160641.951000", "160641.954000", "160641.957000", "160641.960000", "160641.963000", "160641.966000", "160641.969000", "160641.972000", "160641.975000", "160641.978000", "160641.981000", "160641.984000", "160641.987000", "160641.989000", "160641.992000", "160641.995000", "160641.998000", "160642.002000", "160642.005000", "160642.008000", "160642.011000", "160642.014000", "160642.017000", "160642.020000", "160701.936000", "160701.939000", "160701.942000", "160701.945000", "160701.948000", "160701.951000", "160701.954000", "160701.957000", "160701.960000", "160701.968000", "160701.981000", "160701.984000", "160701.987000", "160701.991000", "160701.993000", "160701.996000", "160702.000000", "160702.003000", "160702.007000", "160702.010000", "160702.012000", "160702.016000", "160702.018000", "160702.021000", "160702.024000", "160702.027000", "160702.030000", "160702.033000", "160721.936000", "160721.939000", "160721.942000", "160721.945000", "160721.948000", "160721.951000", "160721.954000", "160721.958000", "160721.962000", "160721.965000", "160721.968000", "160721.971000", "160721.974000", "160721.977000", "160721.980000", "160721.995000", "160721.998000", "160722.001000", "160722.004000", "160722.007000", "160722.010000", "160722.013000", "160722.016000", "160722.019000", "160722.022000", "160722.025000", "160722.028000", "160722.031000", "160741.936000", "160741.939000", "160741.942000", "160741.945000", "160741.948000", "160741.951000", "160741.954000", "160741.957000", "160741.960000", "160741.963000", "160741.966000", "160741.969000", "160741.972000", "160741.975000", "160741.978000", "160741.981000", "160741.984000", "160741.987000", "160741.990000", "160741.993000", "160741.996000", "160742.000000", "160742.003000", "160801.936000", "160801.939000", "160801.942000", "160801.945000", "160801.948000", "160801.951000", "160801.954000", "160801.957000", "160801.960000", "160801.963000", "160801.966000", "160801.969000", "160801.972000", "160801.975000", "160801.978000", "160801.981000", "160801.984000", "160801.987000", "160801.990000", "160801.993000", "160821.936000", "160821.939000", "160821.942000", "160821.945000", "160821.948000", "160821.951000", "160821.954000", "160821.957000", "160821.960000", "160821.963000", "160821.966000", "160821.969000", "160821.972000", "160821.975000", "160821.978000", "160821.981000", "160821.984000", "160821.987000", "160821.990000", "160821.993000", "160841.936000", "160841.939000", "160841.942000", "160841.945000", "160841.948000", "160841.951000", "160841.954000", "160841.957000", "160841.960000", "160841.963000", "160841.965000", "160841.968000", "160841.971000", "160841.974000", "160841.977000", "160841.980000", "160841.983000", "160841.986000", "160841.989000", "160841.992000", "160901.966000", "160901.969000", "160901.972000", "160901.975000", "160901.979000", "160901.982000", "160901.985000", "160901.988000", "160901.991000", "160901.994000", "160901.997000", "160902.009000", "160902.012000", "160902.015000", "160902.018000", "160902.021000", "160902.024000", "160902.027000", "160902.030000", "160902.033000"],
      "InstanceNumber": [1, 2, 3, 4, 5, 6, 7, 8, 9, 10, 11, 12, 13, 14, 15, 16, 17, 18, 19, 20, 21, 22, 23, 24, 25, 26, 27, 28, 29, 30, 31, 32, 33, 34, 35, 36, 37, 38, 39, 40, 41, 42, 43, 44, 45, 46, 47, 48, 49, 50, 51, 52, 53, 54, 55, 56, 57, 58, 59, 60, 61, 62, 63, 64, 65, 66, 67, 68, 69, 70, 71, 72, 73, 74, 75, 76, 77, 78, 79, 80, 81, 82, 83, 84, 85, 86, 87, 88, 89, 90, 91, 92, 93, 94, 95, 96, 97, 98, 99, 100, 101, 102, 103, 104, 105, 106, 107, 108, 109, 110, 111, 112, 113, 114, 115, 116, 117, 118, 119, 120, 121, 122, 123, 124, 125, 126, 127, 128, 129, 130, 131, 132, 133, 134, 135, 136, 137, 138, 139, 140, 141, 142, 143, 144, 145, 146, 147, 148, 149, 150, 151, 152, 153, 154, 155, 156, 157, 158, 159, 160, 161, 162, 163, 164, 165, 166, 167, 168, 169, 170, 171, 172, 173, 174, 175, 176, 177, 178, 179, 180, 181, 182, 183, 184, 185, 186, 187, 188, 189, 190, 191, 192, 193, 194, 195, 196, 197, 198, 199, 200, 201, 202, 203, 204, 205, 206, 207, 208, 209, 210, 211, 212, 213, 214, 215, 216, 217, 218, 219, 220, 221, 222, 223, 224, 225, 226, 227, 228, 229, 230, 231, 232, 233, 234, 235, 236, 237, 238, 239, 240, 241, 242, 243, 244, 245, 246, 247, 248, 249, 250, 251, 252, 253, 254, 255, 256, 257, 258, 259, 260, 261, 262, 263, 264],
      "LargestImagePixelValue": [33901, 32918, 37871, 35361, 31764, 37037, 36755, 31333, 35926, 36633, 34095, 38652, 30980, 39427, 30990, 38901, 31057, 37310, 31028, 36494, 32303, 34084, 33213, 37532, 30873, 32317, 30456, 32571, 30339, 32203, 35954, 32779, 38156, 31081, 39388, 32016, 36735, 33692, 30692, 35228, 30342, 32838, 30614, 35551, 30914, 38122, 39313, 36337, 30656, 34597, 31027, 38796, 32002, 40315, 35787, 30301, 34918, 30439, 37010, 30215, 39765, 30222, 39166, 30979, 39124, 30729, 30840, 32112, 37238, 35973, 30682, 34900, 30391, 35906, 38892, 39647, 30440, 38846, 33428, 29900, 37637, 30441, 37063, 30370, 38732, 30462, 39116, 40252, 38987, 30558, 30886, 32191, 38029, 32122, 32476, 30266, 35139, 30735, 35417, 40954, 39478, 29635, 38667, 31999, 37569, 30686, 35168, 34314, 34602, 30321, 37217, 30233, 37111, 29988, 36032, 30126, 35583, 29791, 36411, 31166, 38508, 29720, 36688, 36041, 34825, 39910, 35677, 31551, 40297, 40311, 31723, 33565, 32271, 40800, 32882, 37818, 32902, 31248, 35173, 35644, 34393, 32660, 35229, 31896, 38899, 30779, 37219, 30548, 35498, 30615, 39629, 31070, 33212, 31267, 31104, 30887, 35589, 31258, 31221, 30682, 38186, 31250, 40198, 31863, 36824, 35024, 30668, 37885, 31035, 38847, 31201, 39217, 32045, 31480, 32863, 30771, 33306, 31164, 32275, 37052, 31110, 39856, 31837, 34149, 35053, 31466, 34847, 31670, 34583, 30471, 31894, 31754, 34420, 30769, 36595, 32284, 38065, 40830, 38904, 31202, 38102, 30619, 37947, 30861, 31716, 33291, 36778, 31864, 36453, 33363, 30623, 30540, 38999, 33179, 36104, 33909, 31716, 39257, 32136, 39255, 31479, 38039, 33136, 38630, 34738, 31196, 34735, 32629, 33647, 36707, 31713, 36719, 33337, 38203, 39100, 36862, 31387, 36447, 38393, 38687, 32137, 39156, 41150, 35341, 30651, 33083, 32789, 35370, 33645, 34195, 32763, 32768, 30387, 32137, 33603, 32302, 37136, 32638, 38201, 34681, 31491, 36781, 33723, 38548],
      "WindowCenter": [9636.0, 9623.0, 9665.0, 9625.0, 9566.0, 9621.0, 9611.0, 9538.0, 9588.0, 9595.0, 9572.0, 9616.0, 9529.0, 9620.0, 9530.0, 9621.0, 9527.0, 9602.0, 9521.0, 9599.0, 9555.0, 9580.0, 9570.0, 9624.0, 9535.0, 9559.0, 9532.0, 9555.0, 9524.0, 9548.0, 9588.0, 9546.0, 9612.0, 9539.0, 9638.0, 9553.0, 9609.0, 9567.0, 9524.0, 9575.0, 9517.0, 9560.0, 9526.0, 9591.0, 9530.0, 9618.0, 9623.0, 9599.0, 9525.0, 9594.0, 9548.0, 9638.0, 9553.0, 9638.0, 9590.0, 9516.0, 9567.0, 9506.0, 9596.0, 9508.0, 9619.0, 9508.0, 9615.0, 9524.0, 9623.0, 9523.0, 9525.0, 9534.0, 9584.0, 9578.0, 9505.0, 9565.0, 9505.0, 9579.0, 9615.0, 9629.0, 9518.0, 9608.0, 9550.0, 9494.0, 9594.0, 9506.0, 9588.0, 9508.0, 9618.0, 9525.0, 9641.0, 9654.0, 9647.0, 9547.0, 9552.0, 9551.0, 9621.0, 9536.0, 9539.0, 9508.0, 9580.0, 9521.0, 9582.0, 9633.0, 9615.0, 9502.0, 9607.0, 9532.0, 9595.0, 9531.0, 9593.0, 9582.0, 9588.0, 9518.0, 9592.0, 9502.0, 9581.0, 9498.0, 9567.0, 9491.0, 9562.0, 9484.0, 9567.0, 9499.0, 9582.0, 9481.0, 9570.0, 9575.0, 9577.0, 9647.0, 9612.0, 9557.0, 9632.0, 9628.0, 9518.0, 9540.0, 9513.0, 9612.0, 9518.0, 9574.0, 9518.0, 9498.0, 9547.0, 9560.0, 9552.0, 9537.0, 9567.0, 9525.0, 9599.0, 9495.0, 9571.0, 9488.0, 9560.0, 9495.0, 9600.0, 9500.0, 9525.0, 9501.0, 9501.0, 9500.0, 9553.0, 9498.0, 9499.0, 9510.0, 9610.0, 9540.0, 9647.0, 9554.0, 9603.0, 9570.0, 9506.0, 9578.0, 9501.0, 9588.0, 9499.0, 9595.0, 9513.0, 9509.0, 9524.0, 9502.0, 9531.0, 9500.0, 9517.0, 9562.0, 9492.0, 9589.0, 9496.0, 9523.0, 9528.0, 9486.0, 9528.0, 9496.0, 9540.0, 9486.0, 9512.0, 9516.0, 9558.0, 9496.0, 9565.0, 9509.0, 9582.0, 9611.0, 9590.0, 9510.0, 9585.0, 9496.0, 9584.0, 9494.0, 9498.0, 9513.0, 9553.0, 9493.0, 9547.0, 9513.0, 9495.0, 9497.0, 9605.0, 9548.0, 9569.0, 9538.0, 9498.0, 9578.0, 9494.0, 9578.0, 9500.0, 9586.0, 9535.0, 9607.0, 9558.0, 9512.0, 9557.0, 9528.0, 9539.0, 9571.0, 9507.0, 9563.0, 9522.0, 9584.0, 9595.0, 9574.0, 9510.0, 9576.0, 9592.0, 9582.0, 9504.0, 9578.0, 9600.0, 9544.0, 9484.0, 9523.0, 9515.0, 9544.0, 9526.0, 9524.0, 9505.0, 9499.0, 9466.0, 9491.0, 9514.0, 9498.0, 9569.0, 9525.0, 9584.0, 9546.0, 9504.0, 9529.0, 9571.0, 9608.0],
      "WindowWidth": [20430.0, 20401.0, 20460.0, 20384.0, 20280.0, 20362.0, 20340.0, 20216.0, 20295.0, 20306.0, 20269.0, 20336.0, 20196.0, 20341.0, 20199.0, 20344.0, 20193.0, 20312.0, 20185.0, 20313.0, 20247.0, 20290.0, 20274.0, 20365.0, 20218.0, 20258.0, 20211.0, 20246.0, 20192.0, 20231.0, 20295.0, 20228.0, 20336.0, 20224.0, 20385.0, 20248.0, 20336.0, 20265.0, 20193.0, 20272.0, 20182.0, 20254.0, 20201.0, 20306.0, 20205.0, 20344.0, 20351.0, 20313.0, 20197.0, 20317.0, 20243.0, 20389.0, 20246.0, 20379.0, 20299.0, 20173.0, 20255.0, 20153.0, 20301.0, 20160.0, 20340.0, 20162.0, 20337.0, 20193.0, 20355.0, 20190.0, 20195.0, 20205.0, 20280.0, 20268.0, 20148.0, 20249.0, 20152.0, 20274.0, 20335.0, 20361.0, 20182.0, 20324.0, 20229.0, 20136.0, 20294.0, 20155.0, 20288.0, 20164.0, 20345.0, 20198.0, 20391.0, 20415.0, 20407.0, 20244.0, 20249.0, 20240.0, 20351.0, 20206.0, 20208.0, 20157.0, 20279.0, 20185.0, 20285.0, 20367.0, 20337.0, 20152.0, 20319.0, 20199.0, 20302.0, 20206.0, 20311.0, 20293.0, 20302.0, 20182.0, 20295.0, 20146.0, 20267.0, 20132.0, 20243.0, 20124.0, 20239.0, 20111.0, 20245.0, 20132.0, 20264.0, 20102.0, 20247.0, 20263.0, 20279.0, 20404.0, 20350.0, 20257.0, 20365.0, 20350.0, 20164.0, 20198.0, 20154.0, 20313.0, 20162.0, 20249.0, 20162.0, 20132.0, 20210.0, 20236.0, 20230.0, 20210.0, 20257.0, 20185.0, 20300.0, 20125.0, 20247.0, 20112.0, 20231.0, 20125.0, 20294.0, 20133.0, 20175.0, 20136.0, 20137.0, 20133.0, 20218.0, 20131.0, 20135.0, 20160.0, 20329.0, 20224.0, 20400.0, 20248.0, 20320.0, 20258.0, 20149.0, 20259.0, 20135.0, 20274.0, 20130.0, 20288.0, 20154.0, 20151.0, 20171.0, 20139.0, 20181.0, 20129.0, 20155.0, 20225.0, 20114.0, 20266.0, 20118.0, 20159.0, 20164.0, 20096.0, 20164.0, 20120.0, 20197.0, 20111.0, 20154.0, 20166.0, 20236.0, 20131.0, 20239.0, 20147.0, 20265.0, 20314.0, 20282.0, 20155.0, 20274.0, 20130.0, 20269.0, 20120.0, 20125.0, 20143.0, 20204.0, 20108.0, 20196.0, 20146.0, 20125.0, 20133.0, 20309.0, 20220.0, 20248.0, 20195.0, 20124.0, 20247.0, 20112.0, 20249.0, 20131.0, 20276.0, 20198.0, 20317.0, 20230.0, 20156.0, 20225.0, 20179.0, 20196.0, 20244.0, 20143.0, 20231.0, 20164.0, 20269.0, 20289.0, 20258.0, 20154.0, 20262.0, 20284.0, 20262.0, 20133.0, 20250.0, 20283.0, 20199.0, 20102.0, 20166.0, 20151.0, 20198.0, 20168.0, 20162.0, 20128.0, 20119.0, 20062.0, 20104.0, 20139.0, 20118.0, 20239.0, 20175.0, 20267.0, 20206.0, 20137.0, 20151.0, 20278.0, 20321.0]
    },
    "slices": {}
  },
  "NumberOfVolumes": 264
}