{
  "AcquisitionMatrixPE": 104,
  "AcquisitionNumber": 1,
  "AcquisitionTime": "16:33:18.565000",
  "BandwidthPerPixelPhaseEncode": 16.578,
  "BaseResolution": 104,
  "BodyPartExamined": "BRAIN",
  "ConsistencyInfo": "N4_VE11C_LATEST_20160120",
  "ConversionSoftware": "dcm2niix",
  "ConversionSoftwareVersion": "v1.0.20190410  GCC6.3.0",
  "DerivedVendorReportedEchoSpacing": 0.000580009,
  "DeviceSerialNumber": "166018",
  "DwellTime": 2.1e-06,
  "EchoTime": 0.037,
  "EchoTrainLength": 104,
  "EffectiveEchoSpacing": 0.000580009,
  "FlipAngle": 68,
  "ImageComments": "Unaliased_MB6_PE3_LB",
  "ImageOrientationPatientDICOM": [0.999403, 0.0342904, 0.00416753, -0.0324551, 0.973451, -0.226581],
  "ImageType": [
    "ORIGINAL",
    "PRIMARY",
    "M",
    "MB",
    "ND",
    "MOSAIC"
],
  "ImagingFrequency": 123.191,
  "InPlanePhaseEncodingDirectionDICOM": "COL",
  "InstitutionAddress": "Washington_Place_6_NYC_NYC_US_10003",
  "InstitutionName": "NYU_-_CBI",
  "InstitutionalDepartmentName": "Department",
  "MRAcquisitionType": "2D",
  "MagneticFieldStrength": 3,
  "Manufacturer": "Siemens",
  "ManufacturersModelName": "Prisma",
  "Modality": "MR",
  "MultibandAccelerationFactor": 6,
  "PartialFourier": 1,
  "PatientPosition": "HFS",
  "PercentPhaseFOV": 100,
  "PhaseEncodingDirection": "j",
  "PhaseEncodingSteps": 104,
  "PhaseResolution": 1,
  "PixelBandwidth": 2290,
  "ProcedureStepDescription": "Investigators_Winawer",
  "ProtocolName": "task-sfprescaled_cmrr_mbepi_s6_2mm_66sl_PA_TR1.0",
  "PulseSequenceDetails": "%CustomerSeq%_cmrr_mbep2d_bold",
  "ReceiveCoilActiveElements": "HC1-7",
  "ReceiveCoilName": "HeadNeck_64",
  "ReconMatrixPE": 104,
  "RepetitionTime": 1,
  "SAR": 0.0720179,
  "ScanOptions": "FS",
  "ScanningSequence": "EP",
  "SequenceName": "epfid2d1_104",
  "SequenceVariant": "SK_SS",
  "SeriesDescription": "task-sfprescaled_cmrr_mbepi_s6_2mm_66sl_PA_TR1.0",
  "SeriesNumber": 32,
  "ShimSetting": [251, -12599, -8434, 396, -51, -72, -50, -8],
  "SliceThickness": 2,
  "SliceTiming": [0, 0.535, 0.0875, 0.6225, 0.1775, 0.7125, 0.2675, 0.8, 0.355, 0.89, 0.445, 0, 0.535, 0.0875, 0.6225, 0.1775, 0.7125, 0.2675, 0.8, 0.355, 0.89, 0.445, 0, 0.535, 0.0875, 0.6225, 0.1775, 0.7125, 0.2675, 0.8, 0.355, 0.89, 0.445, 0, 0.535, 0.0875, 0.6225, 0.1775, 0.7125, 0.2675, 0.8, 0.355, 0.89, 0.445, 0, 0.535, 0.0875, 0.6225, 0.1775, 0.7125, 0.2675, 0.8, 0.355, 0.89, 0.445, 0, 0.535, 0.0875, 0.6225, 0.1775, 0.7125, 0.2675, 0.8, 0.355, 0.89, 0.445],
  "SoftwareVersions": "syngo_MR_E11",
  "SpacingBetweenSlices": 2,
  "StationName": "AWP166018",
  "TaskName": "sfprescaled",
  "TotalReadoutTime": 0.0597409,
  "TxRefAmp": 249.599,
  "WipMemBlock": "aba3b49b-1270-4050-a1a2-8a36a547e145||Sequence: R016 ve11c/master r/8780670; Nov 27 2017 15:05:12 by eja",
  "dcmmeta_affine": [
    [-1.9988064765930176, -0.06491026282310486, 0.02365286834537983, 111.34695434570312],
    [-0.06858080625534058, 1.9469029903411865, -0.45262065529823303, -66.66215515136719],
    [0.008335058577358723, 0.4531616270542145, 1.9479668140411377, -76.0469741821289],
    [0.0, 0.0, 0.0, 1.0]
],
  "dcmmeta_reorient_transform": [
    [0.0, -1.0, 0.0, 103.0],
    [1.0, 0.0, 0.0, 0.0],
    [0.0, 0.0, 1.0, 0.0],
    [0.0, 0.0, 0.0, 1.0]
],
  "dcmmeta_shape": [104, 104, 66, 264],
  "dcmmeta_slice_dim": 2,
  "dcmmeta_version": 0.6,
  "global": {
    "const": {
      "AccessionNumber": "k5oeerc6",
      "AcquisitionMatrix": [104, 0, 0, 104],
      "AngioFlag": "N",
      "BitsAllocated": 16,
      "BitsStored": 16,
      "BodyPartExamined": "BRAIN",
      "Columns": 936,
      "EchoNumbers": 1,
      "EchoTime": 37.0,
      "EchoTrainLength": 104,
      "FlipAngle": 68.0,
      "HighBit": 15,
      "ImageOrientationPatient": [0.99940322193055, 0.03429040237546, 0.00416752921482, -0.0324551295973, 0.97345148859879, -0.2265808109872],
      "ImagePositionPatient": [-909.16201338096, -972.31010395215, 155.67652003242],
      "ImageType": [
        "ORIGINAL",
        "PRIMARY",
        "M",
        "MB",
        "ND",
        "MOSAIC"
],
      "ImagedNucleus": "1H",
      "ImagingFrequency": 123.190725,
      "InPlanePhaseEncodingDirection": "COL",
      "MRAcquisitionType": "2D",
      "MagneticFieldStrength": 3.0,
      "Manufacturer": "SIEMENS",
      "ManufacturerModelName": "Prisma",
      "Modality": "MR",
      "NumberOfAverages": 1.0,
      "NumberOfPhaseEncodingSteps": 104,
      "PercentPhaseFieldOfView": 100.0,
      "PercentSampling": 100.0,
      "PerformedProcedureStepStartTime": "153551.925000",
      "PhotometricInterpretation": "MONOCHROME2",
      "PixelBandwidth": 2290.0,
      "PixelRepresentation": 0,
      "PixelSpacing": [2.0, 2.0],
      "ProtocolName": "task-sfprescaled_cmrr_mbepi_s6_2mm_66sl_PA_TR1.0",
      "RepetitionTime": 1000.0,
      "Rows": 936,
      "SAR": 0.07201794662423,
      "SamplesPerPixel": 1,
      "ScanOptions": "FS",
      "ScanningSequence": "EP",
      "SequenceName": "epfid2d1_104",
      "SequenceVariant": [
        "SK",
        "SS"
],
      "SeriesDescription": "task-sfprescaled_cmrr_mbepi_s6_2mm_66sl_PA_TR1.0",
      "SeriesNumber": 32,
      "SeriesTime": "163441.807000",
      "SliceLocation": -57.665325382993,
      "SliceThickness": 2.0,
      "SmallestImagePixelValue": 0,
      "SoftwareVersions": "syngo MR E11",
      "SpacingBetweenSlices": 1.999999922841,
      "SpecificCharacterSet": "ISO_IR 100",
      "StudyID": "1",
      "StudyTime": "153551.820000",
      "TransmitCoilName": "Body",
      "VariableFlipAngleFlag": "N",
      "WindowCenterWidthExplanation": "Algo1",
      "dBdt": 0.0},
    "slices": {}
  },
  "time": {
    "samples": {
      "AcquisitionNumber": [1, 2, 3, 4, 5, 6, 7, 8, 9, 10, 11, 12, 13, 14, 15, 16, 17, 18, 19, 20, 21, 22, 23, 24, 25, 26, 27, 28, 29, 30, 31, 32, 33, 34, 35, 36, 37, 38, 39, 40, 41, 42, 43, 44, 45, 46, 47, 48, 49, 50, 51, 52, 53, 54, 55, 56, 57, 58, 59, 60, 61, 62, 63, 64, 65, 66, 67, 68, 69, 70, 71, 72, 73, 74, 75, 76, 77, 78, 79, 80, 81, 82, 83, 84, 85, 86, 87, 88, 89, 90, 91, 92, 93, 94, 95, 96, 97, 98, 99, 100, 101, 102, 103, 104, 105, 106, 107, 108, 109, 110, 111, 112, 113, 114, 115, 116, 117, 118, 119, 120, 121, 122, 123, 124, 125, 126, 127, 128, 129, 130, 131, 132, 133, 134, 135, 136, 137, 138, 139, 140, 141, 142, 143, 144, 145, 146, 147, 148, 149, 150, 151, 152, 153, 154, 155, 156, 157, 158, 159, 160, 161, 162, 163, 164, 165, 166, 167, 168, 169, 170, 171, 172, 173, 174, 175, 176, 177, 178, 179, 180, 181, 182, 183, 184, 185, 186, 187, 188, 189, 190, 191, 192, 193, 194, 195, 196, 197, 198, 199, 200, 201, 202, 203, 204, 205, 206, 207, 208, 209, 210, 211, 212, 213, 214, 215, 216, 217, 218, 219, 220, 221, 222, 223, 224, 225, 226, 227, 228, 229, 230, 231, 232, 233, 234, 235, 236, 237, 238, 239, 240, 241, 242, 243, 244, 245, 246, 247, 248, 249, 250, 251, 252, 253, 254, 255, 256, 257, 258, 259, 260, 261, 262, 263, 264],
      "AcquisitionTime": ["163318.565000", "163319.565000", "163320.565000", "163321.565000", "163322.565000", "163323.565000", "163324.565000", "163325.565000", "163326.565000", "163327.565000", "163328.565000", "163329.565000", "163330.565000", "163331.565000", "163332.565000", "163333.565000", "163334.565000", "163335.565000", "163336.565000", "163337.565000", "163338.565000", "163339.565000", "163340.565000", "163341.565000", "163342.565000", "163343.565000", "163344.565000", "163345.565000", "163346.565000", "163347.565000", "163348.565000", "163349.565000", "163350.565000", "163351.565000", "163352.565000", "163353.565000", "163354.565000", "163355.565000", "163356.565000", "163357.565000", "163358.565000", "163359.565000", "163400.565000", "163401.565000", "163402.565000", "163403.565000", "163404.565000", "163405.565000", "163406.565000", "163407.565000", "163408.565000", "163409.565000", "163410.565000", "163411.565000", "163412.565000", "163413.565000", "163414.565000", "163415.565000", "163416.565000", "163417.565000", "163418.565000", "163419.565000", "163420.565000", "163421.565000", "163422.565000", "163423.565000", "163424.565000", "163425.565000", "163426.565000", "163427.565000", "163428.565000", "163429.565000", "163430.565000", "163431.565000", "163432.565000", "163433.565000", "163434.565000", "163435.565000", "163436.565000", "163437.565000", "163438.565000", "163439.565000", "163440.565000", "163441.565000", "163442.565000", "163443.565000", "163444.565000", "163445.565000", "163446.565000", "163447.565000", "163448.565000", "163449.565000", "163450.565000", "163451.565000", "163452.565000", "163453.565000", "163454.565000", "163455.565000", "163456.565000", "163457.565000", "163458.565000", "163459.565000", "163500.565000", "163501.565000", "163502.565000", "163503.565000", "163504.565000", "163505.565000", "163506.565000", "163507.565000", "163508.565000", "163509.565000", "163510.565000", "163511.565000", "163512.565000", "163513.565000", "163514.565000", "163515.565000", "163516.565000", "163517.565000", "163518.565000", "163519.565000", "163520.565000", "163521.565000", "163522.565000", "163523.565000", "163524.565000", "163525.565000", "163526.565000", "163527.565000", "163528.565000", "163529.565000", "163530.565000", "163531.565000", "163532.565000", "163533.565000", "163534.565000", "163535.565000", "163536.565000", "163537.565000", "163538.565000", "163539.565000", "163540.565000", "163541.565000", "163542.565000", "163543.565000", "163544.565000", "163545.565000", "163546.565000", "163547.565000", "163548.565000", "163549.565000", "163550.565000", "163551.565000", "163552.565000", "163553.565000", "163554.565000", "163555.565000", "163556.565000", "163557.565000", "163558.565000", "163559.565000", "163600.565000", "163601.565000", "163602.565000", "163603.565000", "163604.565000", "163605.565000", "163606.565000", "163607.565000", "163608.565000", "163609.565000", "163610.565000", "163611.565000", "163612.565000", "163613.565000", "163614.565000", "163615.565000", "163616.565000", "163617.565000", "163618.565000", "163619.565000", "163620.565000", "163621.565000", "163622.565000", "163623.565000", "163624.565000", "163625.565000", "163626.565000", "163627.565000", "163628.565000", "163629.565000", "163630.565000", "163631.565000", "163632.565000", "163633.565000", "163634.565000", "163635.565000", "163636.565000", "163637.565000", "163638.565000", "163639.565000", "163640.565000", "163641.565000", "163642.565000", "163643.565000", "163644.565000", "163645.565000", "163646.565000", "163647.565000", "163648.565000", "163649.565000", "163650.565000", "163651.565000", "163652.565000", "163653.565000", "163654.565000", "163655.565000", "163656.565000", "163657.565000", "163658.565000", "163659.565000", "163700.565000", "163701.565000", "163702.565000", "163703.565000", "163704.565000", "163705.565000", "163706.565000", "163707.565000", "163708.565000", "163709.565000", "163710.565000", "163711.565000", "163712.565000", "163713.565000", "163714.565000", "163715.565000", "163716.565000", "163717.565000", "163718.565000", "163719.565000", "163720.565000", "163721.565000", "163722.565000", "163723.565000", "163724.565000", "163725.565000", "163726.565000", "163727.565000", "163728.565000", "163729.565000", "163730.565000", "163731.565000", "163732.565000", "163733.565000", "163734.565000", "163735.565000", "163736.565000", "163737.565000", "163738.565000", "163739.565000", "163740.565000", "163741.565000"],
      "ContentTime": ["163441.810000", "163441.813000", "163441.817000", "163441.820000", "163441.822000", "163441.826000", "163441.829000", "163441.832000", "163441.835000", "163441.838000", "163441.841000", "163441.844000", "163441.847000", "163441.850000", "163441.853000", "163441.856000", "163441.859000", "163441.862000", "163441.865000", "163441.868000", "163441.882000", "163441.885000", "163441.888000", "163441.891000", "163441.894000", "163441.897000", "163441.900000", "163441.903000", "163441.906000", "163441.909000", "163441.912000", "163441.915000", "163441.918000", "163441.921000", "163441.924000", "163441.927000", "163441.930000", "163441.933000", "163441.936000", "163441.939000", "163501.776000", "163501.779000", "163501.782000", "163501.785000", "163501.789000", "163501.792000", "163501.795000", "163501.797000", "163501.800000", "163501.803000", "163501.806000", "163501.809000", "163501.812000", "163501.815000", "163501.818000", "163501.821000", "163501.824000", "163501.827000", "163501.830000", "163501.833000", "163501.836000", "163501.839000", "163501.842000", "163501.845000", "163501.848000", "163501.859000", "163501.862000", "163501.865000", "163521.776000", "163521.779000", "163521.782000", "163521.785000", "163521.788000", "163521.791000", "163521.794000", "163521.797000", "163521.800000", "163521.803000", "163521.806000", "163521.809000", "163521.812000", "163521.815000", "163521.818000", "163521.821000", "163521.824000", "163521.827000", "163521.830000", "163521.833000", "163521.836000", "163521.839000", "163521.842000", "163521.845000", "163521.848000", "163521.851000", "163521.854000", "163521.857000", "163521.860000", "163541.776000", "163541.779000", "163541.782000", "163541.785000", "163541.788000", "163541.791000", "163541.794000", "163541.797000", "163541.800000", "163541.803000", "163541.806000", "163541.809000", "163541.812000", "163541.815000", "163541.819000", "163541.821000", "163541.824000", "163541.827000", "163541.830000", "163541.833000", "163541.836000", "163541.839000", "163541.843000", "163541.846000", "163541.849000", "163541.852000", "163541.870000", "163541.873000", "163601.776000", "163601.779000", "163601.782000", "163601.785000", "163601.788000", "163601.791000", "163601.794000", "163601.797000", "163601.800000", "163601.803000", "163601.806000", "163601.809000", "163601.812000", "163601.815000", "163601.818000", "163601.821000", "163601.824000", "163601.827000", "163601.830000", "163601.833000", "163601.836000", "163601.839000", "163601.842000", "163601.853000", "163601.856000", "163601.859000", "163601.862000", "163601.865000", "163621.776000", "163621.779000", "163621.782000", "163621.785000", "163621.788000", "163621.791000", "163621.794000", "163621.797000", "163621.800000", "163621.803000", "163621.810000", "163621.813000", "163621.816000", "163621.819000", "163621.822000", "163621.825000", "163621.828000", "163621.838000", "163621.841000", "163621.844000", "163621.847000", "163621.850000", "163621.853000", "163621.856000", "163621.862000", "163621.865000", "163621.868000", "163621.871000", "163621.874000", "163641.776000", "163641.779000", "163641.782000", "163641.785000", "163641.788000", "163641.791000", "163641.794000", "163641.797000", "163641.800000", "163641.803000", "163641.806000", "163641.809000", "163641.812000", "163641.815000", "163641.818000", "163641.821000", "163641.824000", "163641.827000", "163641.830000", "163641.833000", "163701.776000", "163701.779000", "163701.782000", "163701.785000", "163701.788000", "163701.791000", "163701.794000", "163701.797000", "163701.800000", "163701.803000", "163701.806000", "163701.809000", "163701.812000", "163701.815000", "163701.818000", "163701.821000", "163701.824000", "163701.827000", "163701.830000", "163701.833000", "163721.776000", "163721.779000", "163721.782000", "163721.785000", "163721.788000", "163721.791000", "163721.794000", "163721.797000", "163721.800000", "163721.803000", "163721.806000", "163721.809000", "163721.812000", "163721.815000", "163721.818000", "163721.822000", "163721.825000", "163721.828000", "163721.830000", "163721.834000", "163741.776000", "163741.779000", "163741.782000", "163741.785000", "163741.788000", "163741.791000", "163741.794000", "163741.805000", "163741.808000", "163741.818000", "163741.821000", "163741.824000", "163741.827000", "163741.830000", "163741.833000", "163741.836000", "163741.839000", "163741.842000", "163741.845000", "163741.848000", "163743.449000", "163743.453000"],
      "InstanceCreationTime": ["163441.810000", "163441.813000", "163441.817000", "163441.820000", "163441.822000", "163441.826000", "163441.829000", "163441.832000", "163441.835000", "163441.838000", "163441.841000", "163441.844000", "163441.847000", "163441.850000", "163441.853000", "163441.856000", "163441.859000", "163441.862000", "163441.865000", "163441.868000", "163441.882000", "163441.885000", "163441.888000", "163441.891000", "163441.894000", "163441.897000", "163441.900000", "163441.903000", "163441.906000", "163441.909000", "163441.912000", "163441.915000", "163441.918000", "163441.921000", "163441.924000", "163441.927000", "163441.930000", "163441.933000", "163441.936000", "163441.939000", "163501.776000", "163501.779000", "163501.782000", "163501.785000", "163501.789000", "163501.792000", "163501.795000", "163501.797000", "163501.800000", "163501.803000", "163501.806000", "163501.809000", "163501.812000", "163501.815000", "163501.818000", "163501.821000", "163501.824000", "163501.827000", "163501.830000", "163501.833000", "163501.836000", "163501.839000", "163501.842000", "163501.845000", "163501.848000", "163501.859000", "163501.862000", "163501.865000", "163521.776000", "163521.779000", "163521.782000", "163521.785000", "163521.788000", "163521.791000", "163521.794000", "163521.797000", "163521.800000", "163521.803000", "163521.806000", "163521.809000", "163521.812000", "163521.815000", "163521.818000", "163521.821000", "163521.824000", "163521.827000", "163521.830000", "163521.833000", "163521.836000", "163521.839000", "163521.842000", "163521.845000", "163521.848000", "163521.851000", "163521.854000", "163521.857000", "163521.860000", "163541.776000", "163541.779000", "163541.782000", "163541.785000", "163541.788000", "163541.791000", "163541.794000", "163541.797000", "163541.800000", "163541.803000", "163541.806000", "163541.809000", "163541.812000", "163541.815000", "163541.819000", "163541.821000", "163541.824000", "163541.827000", "163541.830000", "163541.833000", "163541.836000", "163541.839000", "163541.843000", "163541.846000", "163541.849000", "163541.852000", "163541.870000", "163541.873000", "163601.776000", "163601.779000", "163601.782000", "163601.785000", "163601.788000", "163601.791000", "163601.794000", "163601.797000", "163601.800000", "163601.803000", "163601.806000", "163601.809000", "163601.812000", "163601.815000", "163601.818000", "163601.821000", "163601.824000", "163601.827000", "163601.830000", "163601.833000", "163601.836000", "163601.839000", "163601.842000", "163601.853000", "163601.856000", "163601.859000", "163601.862000", "163601.865000", "163621.776000", "163621.779000", "163621.782000", "163621.785000", "163621.788000", "163621.791000", "163621.794000", "163621.797000", "163621.800000", "163621.803000", "163621.810000", "163621.813000", "163621.816000", "163621.819000", "163621.822000", "163621.825000", "163621.828000", "163621.838000", "163621.841000", "163621.844000", "163621.847000", "163621.850000", "163621.853000", "163621.856000", "163621.862000", "163621.865000", "163621.868000", "163621.871000", "163621.874000", "163641.776000", "163641.779000", "163641.782000", "163641.785000", "163641.788000", "163641.791000", "163641.794000", "163641.797000", "163641.800000", "163641.803000", "163641.806000", "163641.809000", "163641.812000", "163641.815000", "163641.818000", "163641.821000", "163641.824000", "163641.827000", "163641.830000", "163641.833000", "163701.776000", "163701.779000", "163701.782000", "163701.785000", "163701.788000", "163701.791000", "163701.794000", "163701.797000", "163701.800000", "163701.803000", "163701.806000", "163701.809000", "163701.812000", "163701.815000", "163701.818000", "163701.821000", "163701.824000", "163701.827000", "163701.830000", "163701.833000", "163721.776000", "163721.779000", "163721.782000", "163721.785000", "163721.788000", "163721.791000", "163721.794000", "163721.797000", "163721.800000", "163721.803000", "163721.806000", "163721.809000", "163721.812000", "163721.815000", "163721.818000", "163721.822000", "163721.825000", "163721.828000", "163721.830000", "163721.834000", "163741.776000", "163741.779000", "163741.782000", "163741.785000", "163741.788000", "163741.791000", "163741.794000", "163741.805000", "163741.808000", "163741.818000", "163741.821000", "163741.824000", "163741.827000", "163741.830000", "163741.833000", "163741.836000", "163741.839000", "163741.842000", "163741.845000", "163741.848000", "163743.449000", "163743.453000"],
      "InstanceNumber": [1, 2, 3, 4, 5, 6, 7, 8, 9, 10, 11, 12, 13, 14, 15, 16, 17, 18, 19, 20, 21, 22, 23, 24, 25, 26, 27, 28, 29, 30, 31, 32, 33, 34, 35, 36, 37, 38, 39, 40, 41, 42, 43, 44, 45, 46, 47, 48, 49, 50, 51, 52, 53, 54, 55, 56, 57, 58, 59, 60, 61, 62, 63, 64, 65, 66, 67, 68, 69, 70, 71, 72, 73, 74, 75, 76, 77, 78, 79, 80, 81, 82, 83, 84, 85, 86, 87, 88, 89, 90, 91, 92, 93, 94, 95, 96, 97, 98, 99, 100, 101, 102, 103, 104, 105, 106, 107, 108, 109, 110, 111, 112, 113, 114, 115, 116, 117, 118, 119, 120, 121, 122, 123, 124, 125, 126, 127, 128, 129, 130, 131, 132, 133, 134, 135, 136, 137, 138, 139, 140, 141, 142, 143, 144, 145, 146, 147, 148, 149, 150, 151, 152, 153, 154, 155, 156, 157, 158, 159, 160, 161, 162, 163, 164, 165, 166, 167, 168, 169, 170, 171, 172, 173, 174, 175, 176, 177, 178, 179, 180, 181, 182, 183, 184, 185, 186, 187, 188, 189, 190, 191, 192, 193, 194, 195, 196, 197, 198, 199, 200, 201, 202, 203, 204, 205, 206, 207, 208, 209, 210, 211, 212, 213, 214, 215, 216, 217, 218, 219, 220, 221, 222, 223, 224, 225, 226, 227, 228, 229, 230, 231, 232, 233, 234, 235, 236, 237, 238, 239, 240, 241, 242, 243, 244, 245, 246, 247, 248, 249, 250, 251, 252, 253, 254, 255, 256, 257, 258, 259, 260, 261, 262, 263, 264],
      "LargestImagePixelValue": [33989, 34465, 32957, 31898, 31115, 31463, 32056, 31957, 31830, 30639, 31218, 31330, 31468, 31828, 31595, 32366, 31650, 32579, 32177, 30912, 32145, 31334, 32775, 32597, 32154, 33341, 31896, 33192, 32104, 32789, 32918, 31755, 32846, 33102, 31703, 33166, 32370, 32449, 32315, 31219, 32714, 32189, 31642, 33100, 32014, 32662, 32706, 31301, 32790, 32156, 32436, 32900, 31836, 33224, 32301, 32397, 33251, 31910, 33665, 32676, 32671, 32905, 31498, 33074, 31971, 31803, 33315, 32060, 32629, 32706, 32139, 33210, 32244, 32681, 32639, 31831, 33262, 32302, 32136, 32620, 31365, 32071, 32194, 32390, 32833, 31920, 32591, 33482, 32445, 33795, 32488, 32773, 32813, 31421, 32863, 32331, 32904, 30682, 33844, 31710, 33056, 32159, 32808, 33141, 31899, 33294, 32166, 32963, 32869, 32117, 33559, 32452, 33074, 33439, 32269, 32935, 33138, 32393, 33145, 32405, 32500, 33337, 33208, 32145, 33709, 32386, 32832, 33248, 32197, 33080, 32296, 32020, 32894, 31780, 32345, 33014, 32620, 32712, 32413, 32527, 29205, 31724, 30807, 31905, 31397, 30971, 32442, 30997, 32899, 32566, 31700, 32800, 31719, 32355, 33202, 31021, 31895, 33990, 32615, 32139, 32876, 31893, 32168, 32856, 31902, 33143, 32306, 32296, 33041, 32055, 32849, 32064, 31928, 32764, 31778, 32828, 32191, 32411, 32916, 32671, 32646, 33414, 32593, 31671, 34580, 34522, 32948, 31425, 32596, 31648, 34253, 31398, 32454, 31963, 31977, 32590, 33058, 32759, 32282, 31716, 33504, 31893, 32370, 32682, 31617, 32898, 31779, 32643, 32800, 31544, 32662, 31981, 31946, 32165, 31428, 32526, 32110, 32288, 32604, 31827, 32693, 32322, 31867, 33183, 32440, 32422, 33363, 32066, 32697, 32033, 32479, 33169, 31989, 32669, 32612, 32138, 33089, 31948, 32467, 32754, 32300, 33093, 32285, 32648, 32836, 31925, 32643, 31842, 32498, 32674, 31447, 32221, 32682, 31973, 32592, 32300, 31689, 32784, 31211, 31581, 32556, 31564, 31897, 32158],
      "WindowCenter": [9585.0, 9575.0, 9543.0, 9540.0, 9531.0, 9530.0, 9529.0, 9503.0, 9474.0, 9444.0, 9447.0, 9453.0, 9463.0, 9475.0, 9484.0, 9506.0, 9494.0, 9505.0, 9506.0, 9488.0, 9502.0, 9489.0, 9517.0, 9523.0, 9522.0, 9540.0, 9523.0, 9540.0, 9522.0, 9535.0, 9543.0, 9526.0, 9554.0, 9553.0, 9534.0, 9549.0, 9529.0, 9527.0, 9527.0, 9516.0, 9536.0, 9529.0, 9524.0, 9536.0, 9522.0, 9529.0, 9527.0, 9508.0, 9526.0, 9514.0, 9526.0, 9534.0, 9522.0, 9540.0, 9527.0, 9528.0, 9540.0, 9528.0, 9547.0, 9536.0, 9546.0, 9553.0, 9538.0, 9553.0, 9533.0, 9519.0, 9534.0, 9513.0, 9527.0, 9527.0, 9528.0, 9541.0, 9521.0, 9535.0, 9535.0, 9524.0, 9541.0, 9527.0, 9521.0, 9519.0, 9506.0, 9511.0, 9512.0, 9521.0, 9536.0, 9542.0, 9559.0, 9570.0, 9553.0, 9568.0, 9541.0, 9540.0, 9536.0, 9511.0, 9525.0, 9513.0, 9525.0, 9462.0, 9579.0, 9528.0, 9561.0, 9543.0, 9554.0, 9552.0, 9525.0, 9533.0, 9520.0, 9533.0, 9534.0, 9525.0, 9555.0, 9531.0, 9546.0, 9553.0, 9547.0, 9553.0, 9550.0, 9531.0, 9542.0, 9521.0, 9528.0, 9539.0, 9539.0, 9522.0, 9548.0, 9522.0, 9535.0, 9531.0, 9511.0, 9515.0, 9500.0, 9501.0, 9522.0, 9511.0, 9519.0, 9527.0, 9520.0, 9519.0, 9513.0, 9510.0, 9408.0, 9527.0, 9488.0, 9502.0, 9489.0, 9480.0, 9489.0, 9469.0, 9501.0, 9502.0, 9508.0, 9539.0, 9533.0, 9558.0, 9579.0, 9542.0, 9552.0, 9559.0, 9524.0, 9506.0, 9508.0, 9494.0, 9509.0, 9523.0, 9514.0, 9531.0, 9512.0, 9511.0, 9516.0, 9501.0, 9512.0, 9492.0, 9499.0, 9507.0, 9504.0, 9532.0, 9531.0, 9541.0, 9561.0, 9547.0, 9539.0, 9541.0, 9482.0, 9511.0, 9553.0, 9551.0, 9535.0, 9517.0, 9521.0, 9515.0, 9545.0, 9510.0, 9521.0, 9518.0, 9520.0, 9519.0, 9533.0, 9544.0, 9557.0, 9548.0, 9571.0, 9544.0, 9534.0, 9530.0, 9518.0, 9528.0, 9509.0, 9519.0, 9517.0, 9505.0, 9517.0, 9503.0, 9525.0, 9509.0, 9482.0, 9496.0, 9486.0, 9493.0, 9499.0, 9494.0, 9509.0, 9502.0, 9512.0, 9530.0, 9519.0, 9521.0, 9533.0, 9515.0, 9529.0, 9523.0, 9529.0, 9534.0, 9523.0, 9529.0, 9525.0, 9512.0, 9522.0, 9499.0, 9500.0, 9506.0, 9500.0, 9521.0, 9510.0, 9518.0, 9523.0, 9513.0, 9518.0, 9497.0, 9506.0, 9505.0, 9470.0, 9489.0, 9495.0, 9491.0, 9506.0, 9508.0, 9504.0, 9517.0, 9499.0, 9504.0, 9515.0, 9494.0, 9501.0, 9500.0],
      "WindowWidth": [20307.0, 20279.0, 20212.0, 20212.0, 20201.0, 20198.0, 20185.0, 20128.0, 20061.0, 20002.0, 20005.0, 20017.0, 20040.0, 20072.0, 20090.0, 20129.0, 20110.0, 20127.0, 20129.0, 20100.0, 20125.0, 20105.0, 20154.0, 20168.0, 20172.0, 20202.0, 20176.0, 20202.0, 20173.0, 20194.0, 20213.0, 20188.0, 20234.0, 20232.0, 20199.0, 20219.0, 20183.0, 20177.0, 20176.0, 20161.0, 20196.0, 20184.0, 20177.0, 20195.0, 20169.0, 20179.0, 20173.0, 20141.0, 20171.0, 20153.0, 20173.0, 20189.0, 20172.0, 20201.0, 20179.0, 20182.0, 20202.0, 20182.0, 20216.0, 20200.0, 20222.0, 20235.0, 20213.0, 20232.0, 20197.0, 20167.0, 20189.0, 20151.0, 20177.0, 20179.0, 20183.0, 20205.0, 20169.0, 20192.0, 20192.0, 20175.0, 20201.0, 20173.0, 20163.0, 20159.0, 20138.0, 20145.0, 20149.0, 20165.0, 20197.0, 20214.0, 20248.0, 20265.0, 20236.0, 20254.0, 20205.0, 20199.0, 20190.0, 20147.0, 20167.0, 20146.0, 20167.0, 20048.0, 20282.0, 20185.0, 20247.0, 20218.0, 20233.0, 20225.0, 20176.0, 20183.0, 20161.0, 20184.0, 20189.0, 20178.0, 20228.0, 20189.0, 20219.0, 20231.0, 20220.0, 20229.0, 20219.0, 20188.0, 20204.0, 20167.0, 20179.0, 20194.0, 20194.0, 20166.0, 20211.0, 20169.0, 20190.0, 20177.0, 20140.0, 20142.0, 20116.0, 20121.0, 20160.0, 20146.0, 20162.0, 20174.0, 20162.0, 20158.0, 20146.0, 20140.0, 19948.0, 20184.0, 20109.0, 20129.0, 20102.0, 20084.0, 20094.0, 20059.0, 20110.0, 20114.0, 20134.0, 20197.0, 20197.0, 20245.0, 20284.0, 20221.0, 20234.0, 20237.0, 20170.0, 20131.0, 20132.0, 20107.0, 20139.0, 20165.0, 20154.0, 20181.0, 20149.0, 20143.0, 20151.0, 20122.0, 20137.0, 20103.0, 20114.0, 20130.0, 20132.0, 20184.0, 20190.0, 20208.0, 20243.0, 20213.0, 20199.0, 20194.0, 20082.0, 20149.0, 20218.0, 20213.0, 20193.0, 20163.0, 20167.0, 20158.0, 20207.0, 20152.0, 20170.0, 20161.0, 20166.0, 20163.0, 20190.0, 20216.0, 20245.0, 20235.0, 20270.0, 20219.0, 20194.0, 20183.0, 20163.0, 20174.0, 20144.0, 20158.0, 20153.0, 20131.0, 20153.0, 20127.0, 20177.0, 20139.0, 20088.0, 20104.0, 20092.0, 20104.0, 20115.0, 20108.0, 20136.0, 20124.0, 20145.0, 20175.0, 20161.0, 20167.0, 20188.0, 20159.0, 20183.0, 20172.0, 20181.0, 20188.0, 20172.0, 20179.0, 20169.0, 20146.0, 20156.0, 20113.0, 20116.0, 20125.0, 20118.0, 20155.0, 20138.0, 20154.0, 20162.0, 20147.0, 20153.0, 20112.0, 20124.0, 20119.0, 20058.0, 20087.0, 20097.0, 20096.0, 20124.0, 20132.0, 20128.0, 20149.0, 20118.0, 20124.0, 20141.0, 20103.0, 20117.0, 20115.0]
    },
    "slices": {}
  },
  "NumberOfVolumes": 264
}