{
  "AcquisitionMatrixPE": 104,
  "AcquisitionNumber": 1,
  "AcquisitionTime": "10:30:57.472500",
  "BandwidthPerPixelPhaseEncode": 16.578,
  "BaseResolution": 104,
  "BodyPartExamined": "BRAIN",
  "ConsistencyInfo": "N4_VE11C_LATEST_20160120",
  "ConversionSoftware": "dcm2niix",
  "ConversionSoftwareVersion": "v1.0.20190410  GCC6.3.0",
  "DerivedVendorReportedEchoSpacing": 0.000580009,
  "DeviceSerialNumber": "166018",
  "DwellTime": 2.1e-06,
  "EchoTime": 0.037,
  "EchoTrainLength": 104,
  "EffectiveEchoSpacing": 0.000580009,
  "FlipAngle": 68,
  "ImageComments": "Unaliased_MB6_PE3_LB",
  "ImageOrientationPatientDICOM": [0.995696, 0.0788746, 0.0486709, -0.0731194, 0.99119, -0.110436],
  "ImageType": [
    "ORIGINAL",
    "PRIMARY",
    "M",
    "MB",
    "ND",
    "MOSAIC"
],
  "ImagingFrequency": 123.191,
  "InPlanePhaseEncodingDirectionDICOM": "COL",
  "InstitutionAddress": "Washington_Place_6_NYC_NYC_US_10003",
  "InstitutionName": "NYU_-_CBI",
  "InstitutionalDepartmentName": "Department",
  "MRAcquisitionType": "2D",
  "MagneticFieldStrength": 3,
  "Manufacturer": "Siemens",
  "ManufacturersModelName": "Prisma",
  "Modality": "MR",
  "MultibandAccelerationFactor": 6,
  "PartialFourier": 1,
  "PatientPosition": "HFS",
  "PercentPhaseFOV": 100,
  "PhaseEncodingDirection": "j",
  "PhaseEncodingSteps": 104,
  "PhaseResolution": 1,
  "PixelBandwidth": 2290,
  "ProcedureStepDescription": "Investigators_Winawer",
  "ProtocolName": "cmrr_mbepi_s6_2mm_66sl_PA_TR1.0",
  "PulseSequenceDetails": "%CustomerSeq%_cmrr_mbep2d_bold",
  "ReceiveCoilActiveElements": "HC1-7",
  "ReceiveCoilName": "HeadNeck_64",
  "ReconMatrixPE": 104,
  "RepetitionTime": 1,
  "SAR": 0.0660545,
  "ScanOptions": "FS",
  "ScanningSequence": "EP",
  "SequenceName": "epfid2d1_104",
  "SequenceVariant": "SK_SS",
  "SeriesDescription": "cmrr_mbepi_s6_2mm_66sl_PA_TR1.0",
  "SeriesNumber": 16,
  "ShimSetting": [274, -12672, -8479, 381, -35, -122, 118, 21],
  "SliceThickness": 2,
  "SliceTiming": [0, 0.535, 0.0875, 0.6225, 0.1775, 0.7125, 0.2675, 0.8, 0.355, 0.89, 0.445, 0, 0.535, 0.0875, 0.6225, 0.1775, 0.7125, 0.2675, 0.8, 0.355, 0.89, 0.445, 0, 0.535, 0.0875, 0.6225, 0.1775, 0.7125, 0.2675, 0.8, 0.355, 0.89, 0.445, 0, 0.535, 0.0875, 0.6225, 0.1775, 0.7125, 0.2675, 0.8, 0.355, 0.89, 0.445, 0, 0.535, 0.0875, 0.6225, 0.1775, 0.7125, 0.2675, 0.8, 0.355, 0.89, 0.445, 0, 0.535, 0.0875, 0.6225, 0.1775, 0.7125, 0.2675, 0.8, 0.355, 0.89, 0.445],
  "SoftwareVersions": "syngo_MR_E11",
  "SpacingBetweenSlices": 2,
  "StationName": "AWP166018",
  "TaskName": "sfprescaled",
  "TotalReadoutTime": 0.0597409,
  "TxRefAmp": 209.82,
  "WipMemBlock": "a68301ee-54fa-4dd2-bcf7-e21c28b827f8||Sequence: R016 ve11c/master r/8780670; Nov 27 2017 15:05:12 by eja",
  "dcmmeta_affine": [
    [-1.9913914203643799, -0.14623871445655823, 0.11390535533428192, 115.16291809082031],
    [-0.15774911642074585, 1.9823797941207886, -0.21280448138713837, -77.2774887084961],
    [0.09734170883893967, 0.22087274491786957, 1.9853814840316772, -62.98719787597656],
    [0.0, 0.0, 0.0, 1.0]
],
  "dcmmeta_reorient_transform": [
    [0.0, -1.0, 0.0, 103.0],
    [1.0, 0.0, 0.0, 0.0],
    [0.0, 0.0, 1.0, 0.0],
    [0.0, 0.0, 0.0, 1.0]
],
  "dcmmeta_shape": [104, 104, 66, 264],
  "dcmmeta_slice_dim": 2,
  "dcmmeta_version": 0.6,
  "global": {
    "const": {
      "AccessionNumber": "k5wn3c39",
      "AcquisitionMatrix": [104, 0, 0, 104],
      "AngioFlag": "N",
      "BitsAllocated": 16,
      "BitsStored": 16,
      "BodyPartExamined": "BRAIN",
      "Columns": 936,
      "EchoNumbers": 1,
      "EchoTime": 37.0,
      "EchoTrainLength": 104,
      "FlipAngle": 68.0,
      "HighBit": 15,
      "ImageOrientationPatient": [0.99569571235421, 0.0788745612633, 0.04867085354677, -0.0731193607776, 0.99118987433686, -0.110436371235],
      "ImagePositionPatient": [-867.68385269473, -1017.2012328567, 11.151605366727],
      "ImageType": [
        "ORIGINAL",
        "PRIMARY",
        "M",
        "MB",
        "ND",
        "MOSAIC"
],
      "ImagedNucleus": "1H",
      "ImagingFrequency": 123.190767,
      "InPlanePhaseEncodingDirection": "COL",
      "MRAcquisitionType": "2D",
      "MagneticFieldStrength": 3.0,
      "Manufacturer": "SIEMENS",
      "ManufacturerModelName": "Prisma",
      "Modality": "MR",
      "NumberOfAverages": 1.0,
      "NumberOfPhaseEncodingSteps": 104,
      "PercentPhaseFieldOfView": 100.0,
      "PercentSampling": 100.0,
      "PerformedProcedureStepStartTime": "095825.235000",
      "PhotometricInterpretation": "MONOCHROME2",
      "PixelBandwidth": 2290.0,
      "PixelRepresentation": 0,
      "PixelSpacing": [2.0, 2.0],
      "ProtocolName": "cmrr_mbepi_s6_2mm_66sl_PA_TR1.0",
      "RepetitionTime": 1000.0,
      "Rows": 936,
      "SAR": 0.06605454481919,
      "SamplesPerPixel": 1,
      "ScanOptions": "FS",
      "ScanningSequence": "EP",
      "SequenceName": "epfid2d1_104",
      "SequenceVariant": [
        "SK",
        "SS"
],
      "SeriesDescription": "cmrr_mbepi_s6_2mm_66sl_PA_TR1.0",
      "SeriesNumber": 16,
      "SeriesTime": "103219.691000",
      "SliceLocation": -47.74547499016,
      "SliceThickness": 2.0,
      "SmallestImagePixelValue": 0,
      "SoftwareVersions": "syngo MR E11",
      "SpacingBetweenSlices": 1.9999999638954,
      "SpecificCharacterSet": "ISO_IR 100",
      "StudyID": "1",
      "StudyTime": "095825.175000",
      "TransmitCoilName": "Body",
      "VariableFlipAngleFlag": "N",
      "WindowCenterWidthExplanation": "Algo1",
      "dBdt": 0.0},
    "slices": {}
  },
  "time": {
    "samples": {
      "AcquisitionNumber": [1, 2, 3, 4, 5, 6, 7, 8, 9, 10, 11, 12, 13, 14, 15, 16, 17, 18, 19, 20, 21, 22, 23, 24, 25, 26, 27, 28, 29, 30, 31, 32, 33, 34, 35, 36, 37, 38, 39, 40, 41, 42, 43, 44, 45, 46, 47, 48, 49, 50, 51, 52, 53, 54, 55, 56, 57, 58, 59, 60, 61, 62, 63, 64, 65, 66, 67, 68, 69, 70, 71, 72, 73, 74, 75, 76, 77, 78, 79, 80, 81, 82, 83, 84, 85, 86, 87, 88, 89, 90, 91, 92, 93, 94, 95, 96, 97, 98, 99, 100, 101, 102, 103, 104, 105, 106, 107, 108, 109, 110, 111, 112, 113, 114, 115, 116, 117, 118, 119, 120, 121, 122, 123, 124, 125, 126, 127, 128, 129, 130, 131, 132, 133, 134, 135, 136, 137, 138, 139, 140, 141, 142, 143, 144, 145, 146, 147, 148, 149, 150, 151, 152, 153, 154, 155, 156, 157, 158, 159, 160, 161, 162, 163, 164, 165, 166, 167, 168, 169, 170, 171, 172, 173, 174, 175, 176, 177, 178, 179, 180, 181, 182, 183, 184, 185, 186, 187, 188, 189, 190, 191, 192, 193, 194, 195, 196, 197, 198, 199, 200, 201, 202, 203, 204, 205, 206, 207, 208, 209, 210, 211, 212, 213, 214, 215, 216, 217, 218, 219, 220, 221, 222, 223, 224, 225, 226, 227, 228, 229, 230, 231, 232, 233, 234, 235, 236, 237, 238, 239, 240, 241, 242, 243, 244, 245, 246, 247, 248, 249, 250, 251, 252, 253, 254, 255, 256, 257, 258, 259, 260, 261, 262, 263, 264],
      "AcquisitionTime": ["103057.472500", "103058.472500", "103059.472500", "103100.472500", "103101.472500", "103102.472500", "103103.472500", "103104.472500", "103105.472500", "103106.472500", "103107.472500", "103108.472500", "103109.472500", "103110.472500", "103111.472500", "103112.472500", "103113.472500", "103114.472500", "103115.472500", "103116.472500", "103117.472500", "103118.472500", "103119.472500", "103120.472500", "103121.472500", "103122.472500", "103123.472500", "103124.472500", "103125.472500", "103126.472500", "103127.472500", "103128.472500", "103129.472500", "103130.472500", "103131.472500", "103132.472500", "103133.472500", "103134.472500", "103135.472500", "103136.472500", "103137.472500", "103138.472500", "103139.472500", "103140.472500", "103141.472500", "103142.472500", "103143.472500", "103144.472500", "103145.472500", "103146.472500", "103147.472500", "103148.472500", "103149.472500", "103150.472500", "103151.472500", "103152.472500", "103153.472500", "103154.472500", "103155.472500", "103156.472500", "103157.472500", "103158.472500", "103159.472500", "103200.472500", "103201.472500", "103202.472500", "103203.472500", "103204.472500", "103205.472500", "103206.472500", "103207.472500", "103208.472500", "103209.472500", "103210.472500", "103211.472500", "103212.472500", "103213.472500", "103214.472500", "103215.472500", "103216.472500", "103217.472500", "103218.472500", "103219.472500", "103220.472500", "103221.472500", "103222.472500", "103223.472500", "103224.472500", "103225.472500", "103226.472500", "103227.472500", "103228.472500", "103229.472500", "103230.472500", "103231.472500", "103232.472500", "103233.472500", "103234.472500", "103235.472500", "103236.472500", "103237.472500", "103238.472500", "103239.472500", "103240.472500", "103241.472500", "103242.472500", "103243.472500", "103244.472500", "103245.472500", "103246.472500", "103247.472500", "103248.472500", "103249.472500", "103250.472500", "103251.472500", "103252.472500", "103253.472500", "103254.472500", "103255.472500", "103256.472500", "103257.472500", "103258.472500", "103259.472500", "103300.472500", "103301.472500", "103302.472500", "103303.472500", "103304.472500", "103305.472500", "103306.472500", "103307.472500", "103308.472500", "103309.472500", "103310.472500", "103311.472500", "103312.472500", "103313.472500", "103314.472500", "103315.472500", "103316.472500", "103317.472500", "103318.472500", "103319.472500", "103320.472500", "103321.472500", "103322.472500", "103323.472500", "103324.472500", "103325.472500", "103326.472500", "103327.472500", "103328.472500", "103329.472500", "103330.472500", "103331.472500", "103332.472500", "103333.472500", "103334.472500", "103335.472500", "103336.472500", "103337.472500", "103338.472500", "103339.472500", "103340.472500", "103341.472500", "103342.472500", "103343.472500", "103344.472500", "103345.472500", "103346.472500", "103347.472500", "103348.472500", "103349.472500", "103350.472500", "103351.472500", "103352.472500", "103353.472500", "103354.472500", "103355.472500", "103356.472500", "103357.472500", "103358.472500", "103359.472500", "103400.472500", "103401.472500", "103402.472500", "103403.472500", "103404.472500", "103405.472500", "103406.472500", "103407.472500", "103408.472500", "103409.472500", "103410.472500", "103411.472500", "103412.472500", "103413.472500", "103414.472500", "103415.472500", "103416.472500", "103417.472500", "103418.472500", "103419.472500", "103420.472500", "103421.472500", "103422.472500", "103423.472500", "103424.472500", "103425.472500", "103426.472500", "103427.472500", "103428.472500", "103429.472500", "103430.472500", "103431.472500", "103432.472500", "103433.472500", "103434.472500", "103435.472500", "103436.472500", "103437.472500", "103438.472500", "103439.472500", "103440.472500", "103441.472500", "103442.472500", "103443.472500", "103444.472500", "103445.472500", "103446.472500", "103447.472500", "103448.472500", "103449.472500", "103450.472500", "103451.472500", "103452.472500", "103453.472500", "103454.472500", "103455.472500", "103456.472500", "103457.472500", "103458.472500", "103459.472500", "103500.472500", "103501.472500", "103502.472500", "103503.472500", "103504.472500", "103505.472500", "103506.472500", "103507.472500", "103508.472500", "103509.472500", "103510.472500", "103511.472500", "103512.472500", "103513.472500", "103514.472500", "103515.472500", "103516.472500", "103517.472500", "103518.472500", "103519.472500", "103520.472500"],
      "ContentTime": ["103219.694000", "103219.697000", "103219.700000", "103219.703000", "103219.706000", "103219.709000", "103219.712000", "103219.715000", "103219.718000", "103219.720000", "103219.723000", "103219.733000", "103219.736000", "103219.739000", "103219.742000", "103219.745000", "103219.748000", "103219.751000", "103219.753000", "103219.756000", "103219.759000", "103219.762000", "103219.765000", "103219.768000", "103219.771000", "103219.774000", "103219.777000", "103219.779000", "103219.782000", "103219.790000", "103219.793000", "103219.796000", "103219.799000", "103219.802000", "103219.805000", "103219.807000", "103219.810000", "103219.813000", "103239.664000", "103239.667000", "103239.670000", "103239.673000", "103239.676000", "103239.678000", "103239.681000", "103239.684000", "103239.687000", "103239.690000", "103239.693000", "103239.696000", "103239.699000", "103239.702000", "103239.704000", "103239.707000", "103239.710000", "103239.713000", "103239.716000", "103239.719000", "103239.722000", "103239.724000", "103239.727000", "103239.730000", "103239.733000", "103239.736000", "103239.739000", "103239.742000", "103259.664000", "103259.667000", "103259.670000", "103259.673000", "103259.676000", "103259.678000", "103259.681000", "103259.684000", "103259.687000", "103259.690000", "103259.693000", "103259.696000", "103259.698000", "103259.701000", "103259.704000", "103259.707000", "103259.710000", "103259.713000", "103259.716000", "103259.719000", "103259.722000", "103259.724000", "103259.727000", "103259.730000", "103259.738000", "103259.741000", "103259.744000", "103259.747000", "103319.663000", "103319.666000", "103319.669000", "103319.672000", "103319.690000", "103319.693000", "103319.696000", "103319.698000", "103319.701000", "103319.704000", "103319.707000", "103319.710000", "103319.713000", "103319.716000", "103319.719000", "103319.721000", "103319.724000", "103319.727000", "103319.730000", "103319.733000", "103319.736000", "103319.739000", "103319.742000", "103319.744000", "103319.747000", "103319.750000", "103319.753000", "103319.756000", "103339.663000", "103339.666000", "103339.669000", "103339.672000", "103339.675000", "103339.677000", "103339.680000", "103339.683000", "103339.686000", "103339.689000", "103339.692000", "103339.695000", "103339.698000", "103339.701000", "103339.703000", "103339.706000", "103339.709000", "103339.712000", "103339.715000", "103339.718000", "103339.721000", "103339.724000", "103339.726000", "103339.729000", "103339.732000", "103339.735000", "103339.738000", "103339.741000", "103359.664000", "103359.667000", "103359.670000", "103359.673000", "103359.676000", "103359.678000", "103359.681000", "103359.684000", "103359.687000", "103359.690000", "103359.693000", "103359.696000", "103359.699000", "103359.702000", "103359.705000", "103359.707000", "103359.710000", "103359.713000", "103359.716000", "103359.719000", "103359.722000", "103359.725000", "103359.728000", "103359.731000", "103359.734000", "103359.737000", "103359.740000", "103359.742000", "103419.664000", "103419.667000", "103419.670000", "103419.673000", "103419.676000", "103419.678000", "103419.681000", "103419.684000", "103419.687000", "103419.690000", "103419.701000", "103419.704000", "103419.707000", "103419.710000", "103419.713000", "103419.715000", "103419.718000", "103419.721000", "103419.724000", "103419.727000", "103419.730000", "103419.733000", "103419.736000", "103439.664000", "103439.667000", "103439.670000", "103439.673000", "103439.676000", "103439.679000", "103439.682000", "103439.684000", "103439.687000", "103439.690000", "103439.693000", "103439.696000", "103439.699000", "103439.702000", "103439.705000", "103439.708000", "103439.710000", "103439.713000", "103439.716000", "103439.719000", "103459.664000", "103459.667000", "103459.670000", "103459.673000", "103459.676000", "103459.679000", "103459.681000", "103459.684000", "103459.687000", "103459.690000", "103459.693000", "103459.696000", "103459.699000", "103459.702000", "103459.705000", "103459.707000", "103459.710000", "103459.713000", "103459.716000", "103459.719000", "103519.664000", "103519.667000", "103519.670000", "103519.673000", "103519.676000", "103519.679000", "103519.681000", "103519.684000", "103519.687000", "103519.690000", "103519.693000", "103519.696000", "103519.699000", "103519.702000", "103519.705000", "103519.708000", "103519.710000", "103519.713000", "103519.716000", "103519.719000", "103522.559000", "103522.562000", "103522.565000"],
      "InstanceCreationTime": ["103219.694000", "103219.697000", "103219.700000", "103219.703000", "103219.706000", "103219.709000", "103219.712000", "103219.715000", "103219.718000", "103219.720000", "103219.723000", "103219.733000", "103219.736000", "103219.739000", "103219.742000", "103219.745000", "103219.748000", "103219.751000", "103219.753000", "103219.756000", "103219.759000", "103219.762000", "103219.765000", "103219.768000", "103219.771000", "103219.774000", "103219.777000", "103219.779000", "103219.782000", "103219.790000", "103219.793000", "103219.796000", "103219.799000", "103219.802000", "103219.805000", "103219.807000", "103219.810000", "103219.813000", "103239.664000", "103239.667000", "103239.670000", "103239.673000", "103239.676000", "103239.678000", "103239.681000", "103239.684000", "103239.687000", "103239.690000", "103239.693000", "103239.696000", "103239.699000", "103239.702000", "103239.704000", "103239.707000", "103239.710000", "103239.713000", "103239.716000", "103239.719000", "103239.722000", "103239.724000", "103239.727000", "103239.730000", "103239.733000", "103239.736000", "103239.739000", "103239.742000", "103259.664000", "103259.667000", "103259.670000", "103259.673000", "103259.676000", "103259.678000", "103259.681000", "103259.684000", "103259.687000", "103259.690000", "103259.693000", "103259.696000", "103259.698000", "103259.701000", "103259.704000", "103259.707000", "103259.710000", "103259.713000", "103259.716000", "103259.719000", "103259.722000", "103259.724000", "103259.727000", "103259.730000", "103259.738000", "103259.741000", "103259.744000", "103259.747000", "103319.663000", "103319.666000", "103319.669000", "103319.672000", "103319.690000", "103319.693000", "103319.696000", "103319.698000", "103319.701000", "103319.704000", "103319.707000", "103319.710000", "103319.713000", "103319.716000", "103319.719000", "103319.721000", "103319.724000", "103319.727000", "103319.730000", "103319.733000", "103319.736000", "103319.739000", "103319.742000", "103319.744000", "103319.747000", "103319.750000", "103319.753000", "103319.756000", "103339.663000", "103339.666000", "103339.669000", "103339.672000", "103339.675000", "103339.677000", "103339.680000", "103339.683000", "103339.686000", "103339.689000", "103339.692000", "103339.695000", "103339.698000", "103339.701000", "103339.703000", "103339.706000", "103339.709000", "103339.712000", "103339.715000", "103339.718000", "103339.721000", "103339.724000", "103339.726000", "103339.729000", "103339.732000", "103339.735000", "103339.738000", "103339.741000", "103359.664000", "103359.667000", "103359.670000", "103359.673000", "103359.676000", "103359.678000", "103359.681000", "103359.684000", "103359.687000", "103359.690000", "103359.693000", "103359.696000", "103359.699000", "103359.702000", "103359.705000", "103359.707000", "103359.710000", "103359.713000", "103359.716000", "103359.719000", "103359.722000", "103359.725000", "103359.728000", "103359.731000", "103359.734000", "103359.737000", "103359.740000", "103359.742000", "103419.664000", "103419.667000", "103419.670000", "103419.673000", "103419.676000", "103419.678000", "103419.681000", "103419.684000", "103419.687000", "103419.690000", "103419.701000", "103419.704000", "103419.707000", "103419.710000", "103419.713000", "103419.715000", "103419.718000", "103419.721000", "103419.724000", "103419.727000", "103419.730000", "103419.733000", "103419.736000", "103439.664000", "103439.667000", "103439.670000", "103439.673000", "103439.676000", "103439.679000", "103439.682000", "103439.684000", "103439.687000", "103439.690000", "103439.693000", "103439.696000", "103439.699000", "103439.702000", "103439.705000", "103439.708000", "103439.710000", "103439.713000", "103439.716000", "103439.719000", "103459.664000", "103459.667000", "103459.670000", "103459.673000", "103459.676000", "103459.679000", "103459.681000", "103459.684000", "103459.687000", "103459.690000", "103459.693000", "103459.696000", "103459.699000", "103459.702000", "103459.705000", "103459.707000", "103459.710000", "103459.713000", "103459.716000", "103459.719000", "103519.664000", "103519.667000", "103519.670000", "103519.673000", "103519.676000", "103519.679000", "103519.681000", "103519.684000", "103519.687000", "103519.690000", "103519.693000", "103519.696000", "103519.699000", "103519.702000", "103519.705000", "103519.708000", "103519.710000", "103519.713000", "103519.716000", "103519.719000", "103522.559000", "103522.562000", "103522.565000"],
      "InstanceNumber": [1, 2, 3, 4, 5, 6, 7, 8, 9, 10, 11, 12, 13, 14, 15, 16, 17, 18, 19, 20, 21, 22, 23, 24, 25, 26, 27, 28, 29, 30, 31, 32, 33, 34, 35, 36, 37, 38, 39, 40, 41, 42, 43, 44, 45, 46, 47, 48, 49, 50, 51, 52, 53, 54, 55, 56, 57, 58, 59, 60, 61, 62, 63, 64, 65, 66, 67, 68, 69, 70, 71, 72, 73, 74, 75, 76, 77, 78, 79, 80, 81, 82, 83, 84, 85, 86, 87, 88, 89, 90, 91, 92, 93, 94, 95, 96, 97, 98, 99, 100, 101, 102, 103, 104, 105, 106, 107, 108, 109, 110, 111, 112, 113, 114, 115, 116, 117, 118, 119, 120, 121, 122, 123, 124, 125, 126, 127, 128, 129, 130, 131, 132, 133, 134, 135, 136, 137, 138, 139, 140, 141, 142, 143, 144, 145, 146, 147, 148, 149, 150, 151, 152, 153, 154, 155, 156, 157, 158, 159, 160, 161, 162, 163, 164, 165, 166, 167, 168, 169, 170, 171, 172, 173, 174, 175, 176, 177, 178, 179, 180, 181, 182, 183, 184, 185, 186, 187, 188, 189, 190, 191, 192, 193, 194, 195, 196, 197, 198, 199, 200, 201, 202, 203, 204, 205, 206, 207, 208, 209, 210, 211, 212, 213, 214, 215, 216, 217, 218, 219, 220, 221, 222, 223, 224, 225, 226, 227, 228, 229, 230, 231, 232, 233, 234, 235, 236, 237, 238, 239, 240, 241, 242, 243, 244, 245, 246, 247, 248, 249, 250, 251, 252, 253, 254, 255, 256, 257, 258, 259, 260, 261, 262, 263, 264],
      "LargestImagePixelValue": [35329, 35404, 34702, 35616, 34884, 35083, 35343, 35324, 34362, 34032, 33630, 34572, 33546, 33989, 33994, 33233, 33847, 33586, 34280, 34521, 34434, 34523, 34316, 33738, 34235, 33900, 34421, 34240, 34150, 34779, 34086, 34470, 34423, 34424, 34464, 34354, 34263, 34772, 33999, 34485, 34457, 33928, 34432, 34026, 33953, 34538, 34435, 33967, 34789, 33872, 33669, 34745, 33832, 33781, 34585, 34259, 34181, 34450, 34134, 34718, 34707, 34264, 34834, 34613, 34411, 34789, 34601, 34997, 34650, 33883, 34521, 34252, 33895, 34504, 33806, 34243, 35082, 34632, 35282, 34852, 34482, 35052, 34241, 34454, 34423, 33516, 34754, 34659, 34462, 34561, 34503, 33876, 34716, 34087, 34372, 34869, 34003, 34953, 34519, 34242, 34942, 34400, 34176, 34846, 34035, 34889, 34833, 34670, 35011, 34426, 34785, 34535, 34781, 34681, 33852, 35116, 34330, 34129, 35009, 34149, 35250, 34043, 34055, 35200, 34298, 34965, 34400, 33983, 34955, 34474, 34085, 35013, 33939, 34818, 34419, 34018, 35125, 34892, 34000, 34407, 34043, 34494, 34178, 34021, 34496, 34594, 34736, 35071, 34326, 34951, 34806, 33994, 35007, 34274, 34128, 34843, 34138, 34919, 34609, 34337, 35011, 34705, 34387, 34814, 34174, 34608, 34668, 34312, 35057, 34561, 33907, 34719, 33913, 34594, 35095, 34358, 34975, 34515, 34388, 34856, 34171, 34799, 34538, 34298, 34828, 34347, 35087, 34773, 34034, 34592, 34426, 34311, 34530, 34593, 34781, 34933, 34502, 35370, 34178, 33046, 35075, 34531, 34466, 34628, 33600, 34272, 34444, 34107, 34548, 34500, 34049, 34834, 34301, 34751, 35376, 34600, 34775, 34551, 34046, 35108, 34578, 34137, 34712, 34277, 34770, 34736, 34495, 34560, 34275, 34541, 34313, 34191, 34534, 34134, 34314, 34982, 34025, 34690, 34618, 34385, 34995, 34749, 34694, 34572, 34312, 34815, 34237, 34312, 34764, 34202, 34829, 34517, 34690, 35029, 34149, 34796, 34416, 34829, 34784, 34646, 35266, 34906, 35276, 34557],
      "WindowCenter": [9492.0, 9475.0, 9456.0, 9472.0, 9461.0, 9465.0, 9463.0, 9460.0, 9443.0, 9445.0, 9440.0, 9450.0, 9437.0, 9427.0, 9421.0, 9416.0, 9427.0, 9439.0, 9452.0, 9467.0, 9468.0, 9459.0, 9447.0, 9440.0, 9445.0, 9441.0, 9451.0, 9444.0, 9443.0, 9447.0, 9436.0, 9441.0, 9442.0, 9441.0, 9434.0, 9434.0, 9427.0, 9438.0, 9435.0, 9440.0, 9443.0, 9439.0, 9447.0, 9437.0, 9436.0, 9446.0, 9441.0, 9436.0, 9452.0, 9444.0, 9445.0, 9455.0, 9445.0, 9444.0, 9456.0, 9452.0, 9452.0, 9457.0, 9451.0, 9448.0, 9448.0, 9449.0, 9463.0, 9459.0, 9459.0, 9464.0, 9456.0, 9454.0, 9448.0, 9435.0, 9441.0, 9449.0, 9444.0, 9457.0, 9456.0, 9466.0, 9479.0, 9467.0, 9463.0, 9449.0, 9448.0, 9451.0, 9442.0, 9448.0, 9448.0, 9436.0, 9446.0, 9439.0, 9439.0, 9440.0, 9447.0, 9443.0, 9455.0, 9458.0, 9465.0, 9471.0, 9455.0, 9465.0, 9457.0, 9449.0, 9454.0, 9453.0, 9447.0, 9453.0, 9443.0, 9453.0, 9453.0, 9446.0, 9452.0, 9455.0, 9462.0, 9464.0, 9456.0, 9449.0, 9443.0, 9447.0, 9442.0, 9443.0, 9453.0, 9450.0, 9460.0, 9446.0, 9451.0, 9460.0, 9448.0, 9445.0, 9445.0, 9441.0, 9451.0, 9447.0, 9441.0, 9452.0, 9444.0, 9468.0, 9465.0, 9460.0, 9469.0, 9455.0, 9435.0, 9440.0, 9435.0, 9446.0, 9448.0, 9444.0, 9463.0, 9466.0, 9464.0, 9470.0, 9465.0, 9464.0, 9470.0, 9452.0, 9461.0, 9450.0, 9448.0, 9445.0, 9441.0, 9452.0, 9441.0, 9443.0, 9455.0, 9449.0, 9443.0, 9456.0, 9450.0, 9449.0, 9449.0, 9442.0, 9452.0, 9441.0, 9435.0, 9440.0, 9437.0, 9447.0, 9452.0, 9451.0, 9468.0, 9465.0, 9460.0, 9465.0, 9458.0, 9463.0, 9456.0, 9449.0, 9448.0, 9448.0, 9453.0, 9453.0, 9444.0, 9454.0, 9456.0, 9459.0, 9464.0, 9459.0, 9457.0, 9448.0, 9442.0, 9452.0, 9440.0, 9424.0, 9453.0, 9449.0, 9447.0, 9445.0, 9429.0, 9438.0, 9437.0, 9434.0, 9438.0, 9440.0, 9439.0, 9454.0, 9451.0, 9455.0, 9451.0, 9447.0, 9447.0, 9442.0, 9436.0, 9452.0, 9441.0, 9434.0, 9447.0, 9444.0, 9455.0, 9455.0, 9449.0, 9442.0, 9434.0, 9433.0, 9434.0, 9434.0, 9439.0, 9434.0, 9436.0, 9454.0, 9445.0, 9451.0, 9458.0, 9452.0, 9455.0, 9450.0, 9440.0, 9440.0, 9433.0, 9438.0, 9435.0, 9434.0, 9446.0, 9442.0, 9446.0, 9440.0, 9432.0, 9436.0, 9432.0, 9444.0, 9439.0, 9445.0, 9444.0, 9438.0, 9443.0, 9438.0, 9443.0, 9430.0],
      "WindowWidth": [20297.0, 20244.0, 20205.0, 20230.0, 20208.0, 20210.0, 20203.0, 20193.0, 20163.0, 20168.0, 20159.0, 20176.0, 20150.0, 20125.0, 20111.0, 20104.0, 20125.0, 20155.0, 20183.0, 20215.0, 20222.0, 20200.0, 20178.0, 20166.0, 20173.0, 20166.0, 20181.0, 20170.0, 20165.0, 20171.0, 20151.0, 20159.0, 20163.0, 20161.0, 20147.0, 20146.0, 20130.0, 20150.0, 20150.0, 20158.0, 20167.0, 20163.0, 20173.0, 20155.0, 20152.0, 20164.0, 20156.0, 20150.0, 20177.0, 20168.0, 20173.0, 20190.0, 20174.0, 20171.0, 20191.0, 20189.0, 20189.0, 20198.0, 20183.0, 20175.0, 20174.0, 20177.0, 20210.0, 20206.0, 20205.0, 20211.0, 20194.0, 20186.0, 20175.0, 20150.0, 20164.0, 20181.0, 20174.0, 20200.0, 20205.0, 20222.0, 20245.0, 20219.0, 20201.0, 20175.0, 20171.0, 20176.0, 20163.0, 20174.0, 20175.0, 20154.0, 20166.0, 20153.0, 20155.0, 20159.0, 20173.0, 20168.0, 20193.0, 20202.0, 20215.0, 20225.0, 20199.0, 20213.0, 20196.0, 20178.0, 20185.0, 20181.0, 20170.0, 20184.0, 20167.0, 20186.0, 20186.0, 20169.0, 20182.0, 20191.0, 20203.0, 20210.0, 20193.0, 20180.0, 20169.0, 20173.0, 20168.0, 20169.0, 20185.0, 20186.0, 20204.0, 20183.0, 20190.0, 20200.0, 20175.0, 20163.0, 20163.0, 20160.0, 20178.0, 20173.0, 20162.0, 20180.0, 20172.0, 20219.0, 20218.0, 20210.0, 20222.0, 20192.0, 20152.0, 20161.0, 20150.0, 20170.0, 20179.0, 20175.0, 20212.0, 20220.0, 20213.0, 20222.0, 20214.0, 20207.0, 20219.0, 20188.0, 20200.0, 20181.0, 20174.0, 20166.0, 20162.0, 20181.0, 20163.0, 20170.0, 20192.0, 20182.0, 20172.0, 20195.0, 20184.0, 20178.0, 20176.0, 20163.0, 20178.0, 20160.0, 20151.0, 20158.0, 20155.0, 20172.0, 20178.0, 20182.0, 20215.0, 20215.0, 20207.0, 20212.0, 20200.0, 20207.0, 20193.0, 20178.0, 20176.0, 20176.0, 20185.0, 20186.0, 20171.0, 20190.0, 20194.0, 20202.0, 20208.0, 20201.0, 20194.0, 20175.0, 20162.0, 20176.0, 20156.0, 20133.0, 20180.0, 20176.0, 20169.0, 20166.0, 20139.0, 20148.0, 20147.0, 20146.0, 20150.0, 20158.0, 20163.0, 20190.0, 20188.0, 20191.0, 20178.0, 20173.0, 20172.0, 20162.0, 20152.0, 20180.0, 20159.0, 20147.0, 20170.0, 20168.0, 20190.0, 20189.0, 20176.0, 20164.0, 20144.0, 20139.0, 20142.0, 20144.0, 20153.0, 20146.0, 20150.0, 20186.0, 20176.0, 20188.0, 20202.0, 20188.0, 20190.0, 20179.0, 20158.0, 20154.0, 20143.0, 20149.0, 20147.0, 20144.0, 20166.0, 20161.0, 20167.0, 20155.0, 20137.0, 20140.0, 20135.0, 20155.0, 20151.0, 20162.0, 20158.0, 20146.0, 20153.0, 20143.0, 20152.0, 20128.0]
    },
    "slices": {}
  },
  "NumberOfVolumes": 264
}