{
  "AcquisitionMatrixPE": 104,
  "AcquisitionNumber": 1,
  "AcquisitionTime": "10:11:23.802500",
  "BandwidthPerPixelPhaseEncode": 16.578,
  "BaseResolution": 104,
  "BodyPartExamined": "BRAIN",
  "ConsistencyInfo": "N4_VE11C_LATEST_20160120",
  "ConversionSoftware": "dcm2niix",
  "ConversionSoftwareVersion": "v1.0.20190410  GCC6.3.0",
  "DerivedVendorReportedEchoSpacing": 0.000580009,
  "DeviceSerialNumber": "166018",
  "DwellTime": 2.1e-06,
  "EchoTime": 0.037,
  "EchoTrainLength": 104,
  "EffectiveEchoSpacing": 0.000580009,
  "FlipAngle": 68,
  "ImageComments": "Unaliased_MB6_PE3_LB",
  "ImageOrientationPatientDICOM": [0.995696, 0.0788746, 0.0486709, -0.0731194, 0.99119, -0.110436],
  "ImageType": [
    "ORIGINAL",
    "PRIMARY",
    "M",
    "MB",
    "ND",
    "MOSAIC"
],
  "ImagingFrequency": 123.191,
  "InPlanePhaseEncodingDirectionDICOM": "COL",
  "InstitutionAddress": "Washington_Place_6_NYC_NYC_US_10003",
  "InstitutionName": "NYU_-_CBI",
  "InstitutionalDepartmentName": "Department",
  "MRAcquisitionType": "2D",
  "MagneticFieldStrength": 3,
  "Manufacturer": "Siemens",
  "ManufacturersModelName": "Prisma",
  "Modality": "MR",
  "MultibandAccelerationFactor": 6,
  "PartialFourier": 1,
  "PatientPosition": "HFS",
  "PercentPhaseFOV": 100,
  "PhaseEncodingDirection": "j",
  "PhaseEncodingSteps": 104,
  "PhaseResolution": 1,
  "PixelBandwidth": 2290,
  "ProcedureStepDescription": "Investigators_Winawer",
  "ProtocolName": "cmrr_mbepi_s6_2mm_66sl_PA_TR1.0",
  "PulseSequenceDetails": "%CustomerSeq%_cmrr_mbep2d_bold",
  "ReceiveCoilActiveElements": "HC1-7",
  "ReceiveCoilName": "HeadNeck_64",
  "ReconMatrixPE": 104,
  "RepetitionTime": 1,
  "SAR": 0.0660545,
  "ScanOptions": "FS",
  "ScanningSequence": "EP",
  "SequenceName": "epfid2d1_104",
  "SequenceVariant": "SK_SS",
  "SeriesDescription": "cmrr_mbepi_s6_2mm_66sl_PA_TR1.0",
  "SeriesNumber": 8,
  "ShimSetting": [274, -12672, -8479, 381, -35, -122, 118, 21],
  "SliceThickness": 2,
  "SliceTiming": [0, 0.535, 0.09, 0.6225, 0.1775, 0.7125, 0.2675, 0.8025, 0.3575, 0.89, 0.445, 0, 0.535, 0.09, 0.6225, 0.1775, 0.7125, 0.2675, 0.8025, 0.3575, 0.89, 0.445, 0, 0.535, 0.09, 0.6225, 0.1775, 0.7125, 0.2675, 0.8025, 0.3575, 0.89, 0.445, 0, 0.535, 0.09, 0.6225, 0.1775, 0.7125, 0.2675, 0.8025, 0.3575, 0.89, 0.445, 0, 0.535, 0.09, 0.6225, 0.1775, 0.7125, 0.2675, 0.8025, 0.3575, 0.89, 0.445, 0, 0.535, 0.09, 0.6225, 0.1775, 0.7125, 0.2675, 0.8025, 0.3575, 0.89, 0.445],
  "SoftwareVersions": "syngo_MR_E11",
  "SpacingBetweenSlices": 2,
  "StationName": "AWP166018",
  "TaskName": "sfprescaled",
  "TotalReadoutTime": 0.0597409,
  "TxRefAmp": 209.82,
  "WipMemBlock": "a68301ee-54fa-4dd2-bcf7-e21c28b827f8||Sequence: R016 ve11c/master r/8780670; Nov 27 2017 15:05:12 by eja",
  "dcmmeta_affine": [
    [-1.9913914203643799, -0.14623871445655823, 0.11390535533428192, 115.16291809082031],
    [-0.15774911642074585, 1.9823797941207886, -0.21280448138713837, -77.2774887084961],
    [0.09734170883893967, 0.22087274491786957, 1.9853814840316772, -62.98719787597656],
    [0.0, 0.0, 0.0, 1.0]
],
  "dcmmeta_reorient_transform": [
    [0.0, -1.0, 0.0, 103.0],
    [1.0, 0.0, 0.0, 0.0],
    [0.0, 0.0, 1.0, 0.0],
    [0.0, 0.0, 0.0, 1.0]
],
  "dcmmeta_shape": [104, 104, 66, 264],
  "dcmmeta_slice_dim": 2,
  "dcmmeta_version": 0.6,
  "global": {
    "const": {
      "AccessionNumber": "k5wn3c39",
      "AcquisitionMatrix": [104, 0, 0, 104],
      "AngioFlag": "N",
      "BitsAllocated": 16,
      "BitsStored": 16,
      "BodyPartExamined": "BRAIN",
      "Columns": 936,
      "EchoNumbers": 1,
      "EchoTime": 37.0,
      "EchoTrainLength": 104,
      "FlipAngle": 68.0,
      "HighBit": 15,
      "ImageOrientationPatient": [0.99569571235421, 0.0788745612633, 0.04867085354677, -0.0731193607776, 0.99118987433686, -0.110436371235],
      "ImagePositionPatient": [-867.68385269473, -1017.2012328567, 11.151605366727],
      "ImageType": [
        "ORIGINAL",
        "PRIMARY",
        "M",
        "MB",
        "ND",
        "MOSAIC"
],
      "ImagedNucleus": "1H",
      "ImagingFrequency": 123.190767,
      "InPlanePhaseEncodingDirection": "COL",
      "MRAcquisitionType": "2D",
      "MagneticFieldStrength": 3.0,
      "Manufacturer": "SIEMENS",
      "ManufacturerModelName": "Prisma",
      "Modality": "MR",
      "NumberOfAverages": 1.0,
      "NumberOfPhaseEncodingSteps": 104,
      "PercentPhaseFieldOfView": 100.0,
      "PercentSampling": 100.0,
      "PerformedProcedureStepStartTime": "095825.235000",
      "PhotometricInterpretation": "MONOCHROME2",
      "PixelBandwidth": 2290.0,
      "PixelRepresentation": 0,
      "PixelSpacing": [2.0, 2.0],
      "ProtocolName": "cmrr_mbepi_s6_2mm_66sl_PA_TR1.0",
      "RepetitionTime": 1000.0,
      "Rows": 936,
      "SAR": 0.06605454481919,
      "SamplesPerPixel": 1,
      "ScanOptions": "FS",
      "ScanningSequence": "EP",
      "SequenceName": "epfid2d1_104",
      "SequenceVariant": [
        "SK",
        "SS"
],
      "SeriesDescription": "cmrr_mbepi_s6_2mm_66sl_PA_TR1.0",
      "SeriesNumber": 8,
      "SeriesTime": "101239.621000",
      "SliceLocation": -47.74547499016,
      "SliceThickness": 2.0,
      "SmallestImagePixelValue": 0,
      "SoftwareVersions": "syngo MR E11",
      "SpacingBetweenSlices": 1.9999999638954,
      "SpecificCharacterSet": "ISO_IR 100",
      "StudyID": "1",
      "StudyTime": "095825.175000",
      "TransmitCoilName": "Body",
      "VariableFlipAngleFlag": "N",
      "WindowCenterWidthExplanation": "Algo1",
      "dBdt": 0.0},
    "slices": {}
  },
  "time": {
    "samples": {
      "AcquisitionNumber": [1, 2, 3, 4, 5, 6, 7, 8, 9, 10, 11, 12, 13, 14, 15, 16, 17, 18, 19, 20, 21, 22, 23, 24, 25, 26, 27, 28, 29, 30, 31, 32, 33, 34, 35, 36, 37, 38, 39, 40, 41, 42, 43, 44, 45, 46, 47, 48, 49, 50, 51, 52, 53, 54, 55, 56, 57, 58, 59, 60, 61, 62, 63, 64, 65, 66, 67, 68, 69, 70, 71, 72, 73, 74, 75, 76, 77, 78, 79, 80, 81, 82, 83, 84, 85, 86, 87, 88, 89, 90, 91, 92, 93, 94, 95, 96, 97, 98, 99, 100, 101, 102, 103, 104, 105, 106, 107, 108, 109, 110, 111, 112, 113, 114, 115, 116, 117, 118, 119, 120, 121, 122, 123, 124, 125, 126, 127, 128, 129, 130, 131, 132, 133, 134, 135, 136, 137, 138, 139, 140, 141, 142, 143, 144, 145, 146, 147, 148, 149, 150, 151, 152, 153, 154, 155, 156, 157, 158, 159, 160, 161, 162, 163, 164, 165, 166, 167, 168, 169, 170, 171, 172, 173, 174, 175, 176, 177, 178, 179, 180, 181, 182, 183, 184, 185, 186, 187, 188, 189, 190, 191, 192, 193, 194, 195, 196, 197, 198, 199, 200, 201, 202, 203, 204, 205, 206, 207, 208, 209, 210, 211, 212, 213, 214, 215, 216, 217, 218, 219, 220, 221, 222, 223, 224, 225, 226, 227, 228, 229, 230, 231, 232, 233, 234, 235, 236, 237, 238, 239, 240, 241, 242, 243, 244, 245, 246, 247, 248, 249, 250, 251, 252, 253, 254, 255, 256, 257, 258, 259, 260, 261, 262, 263, 264],
      "AcquisitionTime": ["101123.802500", "101124.802500", "101125.802500", "101126.802500", "101127.802500", "101128.802500", "101129.802500", "101130.802500", "101131.802500", "101132.802500", "101133.802500", "101134.802500", "101135.802500", "101136.802500", "101137.802500", "101138.802500", "101139.802500", "101140.802500", "101141.802500", "101142.802500", "101143.802500", "101144.802500", "101145.802500", "101146.802500", "101147.802500", "101148.802500", "101149.802500", "101150.802500", "101151.802500", "101152.802500", "101153.802500", "101154.802500", "101155.802500", "101156.802500", "101157.802500", "101158.802500", "101159.802500", "101200.802500", "101201.802500", "101202.802500", "101203.802500", "101204.802500", "101205.802500", "101206.802500", "101207.802500", "101208.802500", "101209.802500", "101210.802500", "101211.802500", "101212.802500", "101213.802500", "101214.802500", "101215.802500", "101216.802500", "101217.802500", "101218.802500", "101219.802500", "101220.802500", "101221.802500", "101222.802500", "101223.802500", "101224.802500", "101225.802500", "101226.802500", "101227.802500", "101228.802500", "101229.802500", "101230.802500", "101231.802500", "101232.802500", "101233.802500", "101234.802500", "101235.802500", "101236.802500", "101237.802500", "101238.802500", "101239.802500", "101240.802500", "101241.802500", "101242.802500", "101243.802500", "101244.802500", "101245.802500", "101246.802500", "101247.802500", "101248.802500", "101249.802500", "101250.802500", "101251.802500", "101252.802500", "101253.802500", "101254.802500", "101255.802500", "101256.802500", "101257.802500", "101258.802500", "101259.802500", "101300.802500", "101301.802500", "101302.802500", "101303.802500", "101304.802500", "101305.802500", "101306.802500", "101307.802500", "101308.802500", "101309.802500", "101310.802500", "101311.802500", "101312.802500", "101313.802500", "101314.802500", "101315.802500", "101316.802500", "101317.802500", "101318.802500", "101319.802500", "101320.802500", "101321.802500", "101322.802500", "101323.802500", "101324.802500", "101325.802500", "101326.802500", "101327.802500", "101328.802500", "101329.802500", "101330.802500", "101331.802500", "101332.802500", "101333.802500", "101334.802500", "101335.802500", "101336.802500", "101337.802500", "101338.802500", "101339.802500", "101340.802500", "101341.802500", "101342.802500", "101343.802500", "101344.802500", "101345.802500", "101346.802500", "101347.802500", "101348.802500", "101349.802500", "101350.802500", "101351.802500", "101352.802500", "101353.802500", "101354.802500", "101355.802500", "101356.802500", "101357.802500", "101358.802500", "101359.802500", "101400.802500", "101401.802500", "101402.802500", "101403.802500", "101404.802500", "101405.802500", "101406.802500", "101407.802500", "101408.802500", "101409.802500", "101410.802500", "101411.802500", "101412.802500", "101413.802500", "101414.802500", "101415.802500", "101416.802500", "101417.802500", "101418.802500", "101419.802500", "101420.802500", "101421.802500", "101422.802500", "101423.802500", "101424.802500", "101425.802500", "101426.802500", "101427.802500", "101428.802500", "101429.802500", "101430.802500", "101431.802500", "101432.802500", "101433.802500", "101434.802500", "101435.802500", "101436.802500", "101437.802500", "101438.802500", "101439.802500", "101440.802500", "101441.802500", "101442.802500", "101443.802500", "101444.802500", "101445.802500", "101446.802500", "101447.802500", "101448.802500", "101449.802500", "101450.802500", "101451.802500", "101452.802500", "101453.802500", "101454.802500", "101455.802500", "101456.802500", "101457.802500", "101458.802500", "101459.802500", "101500.802500", "101501.802500", "101502.802500", "101503.802500", "101504.802500", "101505.802500", "101506.802500", "101507.802500", "101508.802500", "101509.802500", "101510.802500", "101511.802500", "101512.802500", "101513.802500", "101514.802500", "101515.802500", "101516.802500", "101517.802500", "101518.802500", "101519.802500", "101520.802500", "101521.802500", "101522.802500", "101523.802500", "101524.802500", "101525.802500", "101526.802500", "101527.802500", "101528.802500", "101529.802500", "101530.802500", "101531.802500", "101532.802500", "101533.802500", "101534.802500", "101535.802500", "101536.802500", "101537.802500", "101538.802500", "101539.802500", "101540.802500", "101541.802500", "101542.802500", "101543.802500", "101544.802500", "101545.802500", "101546.802500"],
      "ContentTime": ["101239.625000", "101239.628000", "101239.637000", "101239.640000", "101239.649000", "101239.652000", "101239.655000", "101239.658000", "101239.660000", "101239.663000", "101239.666000", "101239.669000", "101239.672000", "101239.675000", "101239.678000", "101239.681000", "101239.684000", "101239.687000", "101239.689000", "101239.692000", "101239.695000", "101239.698000", "101239.701000", "101239.704000", "101239.707000", "101239.710000", "101239.713000", "101239.715000", "101239.718000", "101259.595000", "101259.598000", "101259.601000", "101259.604000", "101259.607000", "101259.609000", "101259.612000", "101259.615000", "101259.618000", "101259.622000", "101259.625000", "101259.628000", "101259.631000", "101259.634000", "101259.637000", "101259.639000", "101259.642000", "101259.645000", "101259.648000", "101259.651000", "101259.654000", "101259.657000", "101259.659000", "101259.662000", "101259.665000", "101259.668000", "101259.671000", "101259.674000", "101319.596000", "101319.599000", "101319.602000", "101319.605000", "101319.608000", "101319.611000", "101319.613000", "101319.616000", "101319.619000", "101319.623000", "101319.626000", "101319.629000", "101319.632000", "101319.635000", "101319.637000", "101319.640000", "101319.643000", "101319.646000", "101319.649000", "101319.652000", "101319.655000", "101319.658000", "101319.660000", "101319.663000", "101319.666000", "101319.669000", "101319.672000", "101319.675000", "101339.596000", "101339.599000", "101339.602000", "101339.605000", "101339.608000", "101339.610000", "101339.613000", "101339.616000", "101339.619000", "101339.623000", "101339.626000", "101339.629000", "101339.632000", "101339.647000", "101339.650000", "101339.653000", "101339.656000", "101339.659000", "101339.662000", "101339.665000", "101339.668000", "101339.670000", "101339.673000", "101339.676000", "101339.679000", "101339.682000", "101339.685000", "101339.688000", "101359.596000", "101359.609000", "101359.612000", "101359.615000", "101359.618000", "101359.630000", "101359.633000", "101359.636000", "101359.639000", "101359.642000", "101359.645000", "101359.648000", "101359.651000", "101359.654000", "101359.656000", "101359.659000", "101359.662000", "101359.665000", "101359.668000", "101359.671000", "101359.674000", "101359.677000", "101359.680000", "101359.683000", "101359.685000", "101359.688000", "101359.691000", "101359.694000", "101419.597000", "101419.601000", "101419.604000", "101419.607000", "101419.610000", "101419.613000", "101419.616000", "101419.619000", "101419.623000", "101419.626000", "101419.629000", "101419.632000", "101419.635000", "101419.637000", "101419.640000", "101419.643000", "101419.646000", "101419.649000", "101419.652000", "101419.655000", "101419.658000", "101419.661000", "101419.664000", "101419.667000", "101419.669000", "101419.672000", "101419.675000", "101419.678000", "101439.596000", "101439.599000", "101439.602000", "101439.605000", "101439.608000", "101439.611000", "101439.613000", "101439.616000", "101439.620000", "101439.623000", "101439.626000", "101439.629000", "101439.632000", "101439.635000", "101439.638000", "101439.641000", "101439.644000", "101439.647000", "101439.650000", "101439.652000", "101439.655000", "101439.658000", "101439.661000", "101439.664000", "101439.667000", "101459.595000", "101459.605000", "101459.608000", "101459.611000", "101459.614000", "101459.617000", "101459.620000", "101459.623000", "101459.626000", "101459.629000", "101459.632000", "101459.635000", "101459.638000", "101459.641000", "101459.643000", "101459.646000", "101459.649000", "101459.652000", "101459.655000", "101459.658000", "101519.595000", "101519.598000", "101519.601000", "101519.604000", "101519.607000", "101519.610000", "101519.612000", "101519.615000", "101519.619000", "101519.622000", "101519.625000", "101519.628000", "101519.631000", "101519.634000", "101519.637000", "101519.640000", "101519.643000", "101519.645000", "101519.648000", "101519.651000", "101539.596000", "101539.599000", "101539.602000", "101539.605000", "101539.608000", "101539.611000", "101539.614000", "101539.616000", "101539.620000", "101539.623000", "101539.626000", "101539.629000", "101539.632000", "101539.635000", "101539.638000", "101539.640000", "101539.643000", "101539.646000", "101539.649000", "101539.652000", "101548.824000", "101548.827000", "101548.830000", "101548.833000", "101548.836000", "101548.839000", "101548.842000", "101548.845000", "101548.847000", "101548.859000"],
      "InstanceCreationTime": ["101239.625000", "101239.628000", "101239.637000", "101239.640000", "101239.649000", "101239.652000", "101239.655000", "101239.658000", "101239.660000", "101239.663000", "101239.666000", "101239.669000", "101239.672000", "101239.675000", "101239.678000", "101239.681000", "101239.684000", "101239.687000", "101239.689000", "101239.692000", "101239.695000", "101239.698000", "101239.701000", "101239.704000", "101239.707000", "101239.710000", "101239.713000", "101239.715000", "101239.718000", "101259.595000", "101259.598000", "101259.601000", "101259.604000", "101259.607000", "101259.609000", "101259.612000", "101259.615000", "101259.618000", "101259.622000", "101259.625000", "101259.628000", "101259.631000", "101259.634000", "101259.637000", "101259.639000", "101259.642000", "101259.645000", "101259.648000", "101259.651000", "101259.654000", "101259.657000", "101259.659000", "101259.662000", "101259.665000", "101259.668000", "101259.671000", "101259.674000", "101319.596000", "101319.599000", "101319.602000", "101319.605000", "101319.608000", "101319.611000", "101319.613000", "101319.616000", "101319.619000", "101319.623000", "101319.626000", "101319.629000", "101319.632000", "101319.635000", "101319.637000", "101319.640000", "101319.643000", "101319.646000", "101319.649000", "101319.652000", "101319.655000", "101319.658000", "101319.660000", "101319.663000", "101319.666000", "101319.669000", "101319.672000", "101319.675000", "101339.596000", "101339.599000", "101339.602000", "101339.605000", "101339.608000", "101339.610000", "101339.613000", "101339.616000", "101339.619000", "101339.623000", "101339.626000", "101339.629000", "101339.632000", "101339.647000", "101339.650000", "101339.653000", "101339.656000", "101339.659000", "101339.662000", "101339.665000", "101339.668000", "101339.670000", "101339.673000", "101339.676000", "101339.679000", "101339.682000", "101339.685000", "101339.688000", "101359.596000", "101359.609000", "101359.612000", "101359.615000", "101359.618000", "101359.630000", "101359.633000", "101359.636000", "101359.639000", "101359.642000", "101359.645000", "101359.648000", "101359.651000", "101359.654000", "101359.656000", "101359.659000", "101359.662000", "101359.665000", "101359.668000", "101359.671000", "101359.674000", "101359.677000", "101359.680000", "101359.683000", "101359.685000", "101359.688000", "101359.691000", "101359.694000", "101419.597000", "101419.601000", "101419.604000", "101419.607000", "101419.610000", "101419.613000", "101419.616000", "101419.619000", "101419.623000", "101419.626000", "101419.629000", "101419.632000", "101419.635000", "101419.637000", "101419.640000", "101419.643000", "101419.646000", "101419.649000", "101419.652000", "101419.655000", "101419.658000", "101419.661000", "101419.664000", "101419.667000", "101419.669000", "101419.672000", "101419.675000", "101419.678000", "101439.596000", "101439.599000", "101439.602000", "101439.605000", "101439.608000", "101439.611000", "101439.613000", "101439.616000", "101439.620000", "101439.623000", "101439.626000", "101439.629000", "101439.632000", "101439.635000", "101439.638000", "101439.641000", "101439.644000", "101439.647000", "101439.650000", "101439.652000", "101439.655000", "101439.658000", "101439.661000", "101439.664000", "101439.667000", "101459.595000", "101459.605000", "101459.608000", "101459.611000", "101459.614000", "101459.617000", "101459.620000", "101459.623000", "101459.626000", "101459.629000", "101459.632000", "101459.635000", "101459.638000", "101459.641000", "101459.643000", "101459.646000", "101459.649000", "101459.652000", "101459.655000", "101459.658000", "101519.595000", "101519.598000", "101519.601000", "101519.604000", "101519.607000", "101519.610000", "101519.612000", "101519.615000", "101519.619000", "101519.622000", "101519.625000", "101519.628000", "101519.631000", "101519.634000", "101519.637000", "101519.640000", "101519.643000", "101519.645000", "101519.648000", "101519.651000", "101539.596000", "101539.599000", "101539.602000", "101539.605000", "101539.608000", "101539.611000", "101539.614000", "101539.616000", "101539.620000", "101539.623000", "101539.626000", "101539.629000", "101539.632000", "101539.635000", "101539.638000", "101539.640000", "101539.643000", "101539.646000", "101539.649000", "101539.652000", "101548.824000", "101548.827000", "101548.830000", "101548.833000", "101548.836000", "101548.839000", "101548.842000", "101548.845000", "101548.847000", "101548.859000"],
      "InstanceNumber": [1, 2, 3, 4, 5, 6, 7, 8, 9, 10, 11, 12, 13, 14, 15, 16, 17, 18, 19, 20, 21, 22, 23, 24, 25, 26, 27, 28, 29, 30, 31, 32, 33, 34, 35, 36, 37, 38, 39, 40, 41, 42, 43, 44, 45, 46, 47, 48, 49, 50, 51, 52, 53, 54, 55, 56, 57, 58, 59, 60, 61, 62, 63, 64, 65, 66, 67, 68, 69, 70, 71, 72, 73, 74, 75, 76, 77, 78, 79, 80, 81, 82, 83, 84, 85, 86, 87, 88, 89, 90, 91, 92, 93, 94, 95, 96, 97, 98, 99, 100, 101, 102, 103, 104, 105, 106, 107, 108, 109, 110, 111, 112, 113, 114, 115, 116, 117, 118, 119, 120, 121, 122, 123, 124, 125, 126, 127, 128, 129, 130, 131, 132, 133, 134, 135, 136, 137, 138, 139, 140, 141, 142, 143, 144, 145, 146, 147, 148, 149, 150, 151, 152, 153, 154, 155, 156, 157, 158, 159, 160, 161, 162, 163, 164, 165, 166, 167, 168, 169, 170, 171, 172, 173, 174, 175, 176, 177, 178, 179, 180, 181, 182, 183, 184, 185, 186, 187, 188, 189, 190, 191, 192, 193, 194, 195, 196, 197, 198, 199, 200, 201, 202, 203, 204, 205, 206, 207, 208, 209, 210, 211, 212, 213, 214, 215, 216, 217, 218, 219, 220, 221, 222, 223, 224, 225, 226, 227, 228, 229, 230, 231, 232, 233, 234, 235, 236, 237, 238, 239, 240, 241, 242, 243, 244, 245, 246, 247, 248, 249, 250, 251, 252, 253, 254, 255, 256, 257, 258, 259, 260, 261, 262, 263, 264],
      "LargestImagePixelValue": [35031, 34190, 34297, 33737, 33861, 33622, 33455, 33771, 33362, 33604, 33341, 33489, 33484, 33451, 33670, 33424, 33274, 34034, 33541, 33527, 33957, 33624, 33676, 33433, 34023, 33742, 33609, 33748, 33457, 34131, 33677, 33776, 33793, 33708, 34188, 33699, 33815, 33900, 33868, 33837, 33644, 33790, 33575, 33823, 34146, 33638, 33812, 33705, 34041, 33871, 33764, 33812, 33954, 33825, 34043, 34079, 34327, 34013, 33806, 33354, 33613, 33691, 33917, 33684, 33671, 33857, 33988, 33961, 33719, 33818, 33856, 33666, 33676, 33895, 33774, 33844, 34276, 33999, 33535, 33839, 33718, 33728, 34013, 33644, 34036, 33570, 33919, 33559, 33841, 33838, 33819, 33625, 33745, 33462, 33841, 33915, 33696, 33696, 33543, 33585, 33955, 33534, 33569, 33143, 33626, 33515, 33520, 33757, 33216, 33739, 33651, 33821, 33960, 33827, 33995, 33761, 33549, 34306, 33786, 33908, 33639, 33592, 33490, 33611, 33449, 33405, 33942, 33685, 33776, 33586, 33575, 33877, 33181, 33543, 33546, 33463, 33615, 33619, 33433, 33816, 33421, 33924, 33557, 33548, 33907, 33613, 33371, 33788, 33370, 33742, 33292, 33820, 33780, 33350, 33854, 33811, 33316, 33796, 33804, 34022, 33922, 33592, 33941, 33680, 34025, 33733, 34114, 33809, 34248, 34001, 34749, 34012, 34421, 34406, 34265, 34408, 34367, 34403, 34155, 33817, 33780, 33912, 34045, 33785, 33900, 33713, 33933, 33923, 33830, 33717, 33710, 33454, 34017, 33801, 33722, 34129, 33632, 34387, 34084, 34423, 34398, 33793, 34472, 33977, 33776, 34059, 33667, 34219, 34155, 33459, 34351, 33557, 33455, 33927, 33114, 34006, 33955, 33521, 34156, 33944, 33937, 34133, 33695, 33932, 33742, 34300, 33606, 33735, 34019, 33899, 33649, 34189, 34101, 34219, 34369, 34082, 34260, 33801, 33756, 33875, 34239, 34192, 33514, 34337, 34028, 34351, 34100, 34198, 33896, 34048, 34613, 33858, 34378, 34389, 33896, 34595, 33896, 33879, 33901, 33929, 34297, 34405, 34523, 34409],
      "WindowCenter": [9481.0, 9463.0, 9461.0, 9456.0, 9465.0, 9465.0, 9466.0, 9465.0, 9457.0, 9457.0, 9450.0, 9454.0, 9448.0, 9447.0, 9447.0, 9443.0, 9448.0, 9454.0, 9447.0, 9453.0, 9455.0, 9456.0, 9465.0, 9459.0, 9464.0, 9458.0, 9452.0, 9459.0, 9459.0, 9477.0, 9467.0, 9480.0, 9480.0, 9468.0, 9471.0, 9451.0, 9456.0, 9449.0, 9454.0, 9456.0, 9455.0, 9462.0, 9449.0, 9456.0, 9461.0, 9456.0, 9457.0, 9449.0, 9455.0, 9447.0, 9455.0, 9454.0, 9453.0, 9455.0, 9455.0, 9465.0, 9470.0, 9464.0, 9456.0, 9442.0, 9448.0, 9439.0, 9446.0, 9440.0, 9440.0, 9454.0, 9449.0, 9464.0, 9465.0, 9463.0, 9455.0, 9450.0, 9455.0, 9455.0, 9456.0, 9456.0, 9463.0, 9457.0, 9450.0, 9455.0, 9439.0, 9439.0, 9451.0, 9456.0, 9465.0, 9464.0, 9459.0, 9451.0, 9455.0, 9450.0, 9453.0, 9450.0, 9449.0, 9450.0, 9455.0, 9456.0, 9457.0, 9458.0, 9458.0, 9451.0, 9456.0, 9449.0, 9450.0, 9443.0, 9450.0, 9449.0, 9449.0, 9450.0, 9442.0, 9448.0, 9447.0, 9454.0, 9461.0, 9464.0, 9472.0, 9472.0, 9466.0, 9471.0, 9458.0, 9456.0, 9455.0, 9448.0, 9447.0, 9449.0, 9442.0, 9443.0, 9455.0, 9449.0, 9458.0, 9450.0, 9455.0, 9448.0, 9434.0, 9434.0, 9432.0, 9433.0, 9442.0, 9448.0, 9452.0, 9459.0, 9452.0, 9466.0, 9459.0, 9468.0, 9467.0, 9459.0, 9454.0, 9457.0, 9450.0, 9456.0, 9450.0, 9456.0, 9458.0, 9452.0, 9465.0, 9467.0, 9461.0, 9467.0, 9460.0, 9458.0, 9458.0, 9457.0, 9458.0, 9457.0, 9458.0, 9452.0, 9462.0, 9457.0, 9463.0, 9464.0, 9476.0, 9465.0, 9480.0, 9485.0, 9482.0, 9486.0, 9479.0, 9486.0, 9480.0, 9473.0, 9474.0, 9467.0, 9464.0, 9459.0, 9463.0, 9451.0, 9458.0, 9452.0, 9457.0, 9445.0, 9445.0, 9449.0, 9458.0, 9458.0, 9458.0, 9473.0, 9467.0, 9482.0, 9482.0, 9489.0, 9489.0, 9468.0, 9472.0, 9459.0, 9458.0, 9460.0, 9458.0, 9465.0, 9472.0, 9458.0, 9464.0, 9444.0, 9441.0, 9447.0, 9434.0, 9447.0, 9448.0, 9442.0, 9454.0, 9443.0, 9455.0, 9456.0, 9450.0, 9464.0, 9457.0, 9471.0, 9464.0, 9458.0, 9459.0, 9457.0, 9458.0, 9470.0, 9471.0, 9480.0, 9472.0, 9472.0, 9473.0, 9468.0, 9475.0, 9476.0, 9480.0, 9474.0, 9467.0, 9479.0, 9481.0, 9479.0, 9479.0, 9482.0, 9474.0, 9474.0, 9473.0, 9464.0, 9470.0, 9462.0, 9455.0, 9469.0, 9462.0, 9465.0, 9466.0, 9471.0, 9473.0, 9477.0, 9470.0, 9469.0],
      "WindowWidth": [20255.0, 20207.0, 20198.0, 20192.0, 20215.0, 20215.0, 20217.0, 20209.0, 20191.0, 20190.0, 20173.0, 20179.0, 20168.0, 20166.0, 20169.0, 20162.0, 20170.0, 20181.0, 20168.0, 20180.0, 20188.0, 20193.0, 20213.0, 20202.0, 20211.0, 20199.0, 20188.0, 20203.0, 20204.0, 20236.0, 20221.0, 20246.0, 20245.0, 20220.0, 20222.0, 20180.0, 20189.0, 20174.0, 20184.0, 20188.0, 20187.0, 20200.0, 20171.0, 20187.0, 20196.0, 20191.0, 20193.0, 20177.0, 20190.0, 20171.0, 20186.0, 20183.0, 20180.0, 20188.0, 20186.0, 20211.0, 20219.0, 20210.0, 20193.0, 20162.0, 20171.0, 20148.0, 20162.0, 20155.0, 20156.0, 20187.0, 20178.0, 20209.0, 20211.0, 20202.0, 20187.0, 20178.0, 20187.0, 20188.0, 20192.0, 20191.0, 20206.0, 20195.0, 20181.0, 20185.0, 20148.0, 20150.0, 20172.0, 20191.0, 20214.0, 20210.0, 20201.0, 20184.0, 20187.0, 20181.0, 20185.0, 20181.0, 20180.0, 20181.0, 20191.0, 20193.0, 20196.0, 20200.0, 20197.0, 20184.0, 20191.0, 20176.0, 20179.0, 20165.0, 20181.0, 20179.0, 20181.0, 20185.0, 20164.0, 20172.0, 20167.0, 20183.0, 20201.0, 20211.0, 20228.0, 20226.0, 20214.0, 20222.0, 20197.0, 20191.0, 20185.0, 20169.0, 20168.0, 20176.0, 20163.0, 20167.0, 20188.0, 20179.0, 20199.0, 20182.0, 20189.0, 20173.0, 20144.0, 20141.0, 20136.0, 20141.0, 20162.0, 20175.0, 20187.0, 20202.0, 20188.0, 20213.0, 20201.0, 20221.0, 20220.0, 20202.0, 20191.0, 20194.0, 20179.0, 20187.0, 20175.0, 20190.0, 20196.0, 20187.0, 20212.0, 20217.0, 20209.0, 20220.0, 20204.0, 20199.0, 20198.0, 20194.0, 20196.0, 20198.0, 20197.0, 20187.0, 20203.0, 20193.0, 20204.0, 20210.0, 20232.0, 20216.0, 20247.0, 20255.0, 20252.0, 20256.0, 20242.0, 20254.0, 20241.0, 20228.0, 20229.0, 20214.0, 20206.0, 20197.0, 20203.0, 20182.0, 20197.0, 20185.0, 20195.0, 20172.0, 20168.0, 20174.0, 20194.0, 20194.0, 20198.0, 20228.0, 20219.0, 20251.0, 20251.0, 20266.0, 20266.0, 20221.0, 20227.0, 20202.0, 20199.0, 20205.0, 20200.0, 20214.0, 20226.0, 20198.0, 20208.0, 20166.0, 20158.0, 20164.0, 20140.0, 20167.0, 20170.0, 20160.0, 20183.0, 20163.0, 20188.0, 20191.0, 20180.0, 20207.0, 20195.0, 20222.0, 20209.0, 20197.0, 20199.0, 20192.0, 20198.0, 20221.0, 20223.0, 20242.0, 20226.0, 20227.0, 20229.0, 20221.0, 20237.0, 20238.0, 20246.0, 20232.0, 20219.0, 20240.0, 20247.0, 20241.0, 20241.0, 20250.0, 20234.0, 20235.0, 20231.0, 20210.0, 20217.0, 20199.0, 20183.0, 20211.0, 20199.0, 20210.0, 20214.0, 20221.0, 20224.0, 20230.0, 20214.0, 20212.0]
    },
    "slices": {}
  },
  "NumberOfVolumes": 264
}