{
  "AcquisitionMatrixPE": 104,
  "AcquisitionNumber": 1,
  "AcquisitionTime": "10:46:13.520000",
  "BandwidthPerPixelPhaseEncode": 16.578,
  "BaseResolution": 104,
  "BodyPartExamined": "BRAIN",
  "ConsistencyInfo": "N4_VE11C_LATEST_20160120",
  "ConversionSoftware": "dcm2niix",
  "ConversionSoftwareVersion": "v1.0.20190410  GCC6.3.0",
  "DerivedVendorReportedEchoSpacing": 0.000580009,
  "DeviceSerialNumber": "166018",
  "DwellTime": 2.1e-06,
  "EchoTime": 0.037,
  "EchoTrainLength": 104,
  "EffectiveEchoSpacing": 0.000580009,
  "FlipAngle": 68,
  "ImageComments": "Unaliased_MB6_PE3_LB",
  "ImageOrientationPatientDICOM": [0.995696, 0.0788746, 0.0486709, -0.0731194, 0.99119, -0.110436],
  "ImageType": [
    "ORIGINAL",
    "PRIMARY",
    "M",
    "MB",
    "ND",
    "MOSAIC"
],
  "ImagingFrequency": 123.191,
  "InPlanePhaseEncodingDirectionDICOM": "COL",
  "InstitutionAddress": "Washington_Place_6_NYC_NYC_US_10003",
  "InstitutionName": "NYU_-_CBI",
  "InstitutionalDepartmentName": "Department",
  "MRAcquisitionType": "2D",
  "MagneticFieldStrength": 3,
  "Manufacturer": "Siemens",
  "ManufacturersModelName": "Prisma",
  "Modality": "MR",
  "MultibandAccelerationFactor": 6,
  "PartialFourier": 1,
  "PatientPosition": "HFS",
  "PercentPhaseFOV": 100,
  "PhaseEncodingDirection": "j",
  "PhaseEncodingSteps": 104,
  "PhaseResolution": 1,
  "PixelBandwidth": 2290,
  "ProcedureStepDescription": "Investigators_Winawer",
  "ProtocolName": "cmrr_mbepi_s6_2mm_66sl_PA_TR1.0",
  "PulseSequenceDetails": "%CustomerSeq%_cmrr_mbep2d_bold",
  "ReceiveCoilActiveElements": "HC1-7",
  "ReceiveCoilName": "HeadNeck_64",
  "ReconMatrixPE": 104,
  "RepetitionTime": 1,
  "SAR": 0.0660545,
  "ScanOptions": "FS",
  "ScanningSequence": "EP",
  "SequenceName": "epfid2d1_104",
  "SequenceVariant": "SK_SS",
  "SeriesDescription": "cmrr_mbepi_s6_2mm_66sl_PA_TR1.0",
  "SeriesNumber": 22,
  "ShimSetting": [274, -12672, -8479, 381, -35, -122, 118, 21],
  "SliceThickness": 2,
  "SliceTiming": [0, 0.535, 0.09, 0.625, 0.18, 0.715, 0.2675, 0.8025, 0.3575, 0.8925, 0.4475, 0, 0.535, 0.09, 0.625, 0.18, 0.715, 0.2675, 0.8025, 0.3575, 0.8925, 0.4475, 0, 0.535, 0.09, 0.625, 0.18, 0.715, 0.2675, 0.8025, 0.3575, 0.8925, 0.4475, 0, 0.535, 0.09, 0.625, 0.18, 0.715, 0.2675, 0.8025, 0.3575, 0.8925, 0.4475, 0, 0.535, 0.09, 0.625, 0.18, 0.715, 0.2675, 0.8025, 0.3575, 0.8925, 0.4475, 0, 0.535, 0.09, 0.625, 0.18, 0.715, 0.2675, 0.8025, 0.3575, 0.8925, 0.4475],
  "SoftwareVersions": "syngo_MR_E11",
  "SpacingBetweenSlices": 2,
  "StationName": "AWP166018",
  "TaskName": "sfprescaled",
  "TotalReadoutTime": 0.0597409,
  "TxRefAmp": 209.82,
  "WipMemBlock": "a68301ee-54fa-4dd2-bcf7-e21c28b827f8||Sequence: R016 ve11c/master r/8780670; Nov 27 2017 15:05:12 by eja",
  "dcmmeta_affine": [
    [-1.9913914203643799, -0.14623871445655823, 0.11390535533428192, 115.16291809082031],
    [-0.15774911642074585, 1.9823797941207886, -0.21280448138713837, -77.2774887084961],
    [0.09734170883893967, 0.22087274491786957, 1.9853814840316772, -62.98719787597656],
    [0.0, 0.0, 0.0, 1.0]
],
  "dcmmeta_reorient_transform": [
    [0.0, -1.0, 0.0, 103.0],
    [1.0, 0.0, 0.0, 0.0],
    [0.0, 0.0, 1.0, 0.0],
    [0.0, 0.0, 0.0, 1.0]
],
  "dcmmeta_shape": [104, 104, 66, 264],
  "dcmmeta_slice_dim": 2,
  "dcmmeta_version": 0.6,
  "global": {
    "const": {
      "AccessionNumber": "k5wn3c39",
      "AcquisitionMatrix": [104, 0, 0, 104],
      "AngioFlag": "N",
      "BitsAllocated": 16,
      "BitsStored": 16,
      "BodyPartExamined": "BRAIN",
      "Columns": 936,
      "EchoNumbers": 1,
      "EchoTime": 37.0,
      "EchoTrainLength": 104,
      "FlipAngle": 68.0,
      "HighBit": 15,
      "ImageOrientationPatient": [0.99569571235421, 0.0788745612633, 0.04867085354677, -0.0731193607776, 0.99118987433686, -0.110436371235],
      "ImagePositionPatient": [-867.68385269473, -1017.2012328567, 11.151605366727],
      "ImageType": [
        "ORIGINAL",
        "PRIMARY",
        "M",
        "MB",
        "ND",
        "MOSAIC"
],
      "ImagedNucleus": "1H",
      "ImagingFrequency": 123.190767,
      "InPlanePhaseEncodingDirection": "COL",
      "MRAcquisitionType": "2D",
      "MagneticFieldStrength": 3.0,
      "Manufacturer": "SIEMENS",
      "ManufacturerModelName": "Prisma",
      "Modality": "MR",
      "NumberOfAverages": 1.0,
      "NumberOfPhaseEncodingSteps": 104,
      "PercentPhaseFieldOfView": 100.0,
      "PercentSampling": 100.0,
      "PerformedProcedureStepStartTime": "095825.235000",
      "PhotometricInterpretation": "MONOCHROME2",
      "PixelBandwidth": 2290.0,
      "PixelRepresentation": 0,
      "PixelSpacing": [2.0, 2.0],
      "ProtocolName": "cmrr_mbepi_s6_2mm_66sl_PA_TR1.0",
      "RepetitionTime": 1000.0,
      "Rows": 936,
      "SAR": 0.06605454481919,
      "SamplesPerPixel": 1,
      "ScanOptions": "FS",
      "ScanningSequence": "EP",
      "SequenceName": "epfid2d1_104",
      "SequenceVariant": [
        "SK",
        "SS"
],
      "SeriesDescription": "cmrr_mbepi_s6_2mm_66sl_PA_TR1.0",
      "SeriesNumber": 22,
      "SeriesTime": "104719.696000",
      "SliceLocation": -47.74547499016,
      "SliceThickness": 2.0,
      "SmallestImagePixelValue": 0,
      "SoftwareVersions": "syngo MR E11",
      "SpacingBetweenSlices": 1.9999999638954,
      "SpecificCharacterSet": "ISO_IR 100",
      "StudyID": "1",
      "StudyTime": "095825.175000",
      "TransmitCoilName": "Body",
      "VariableFlipAngleFlag": "N",
      "WindowCenterWidthExplanation": "Algo1",
      "dBdt": 0.0},
    "slices": {}
  },
  "time": {
    "samples": {
      "AcquisitionNumber": [1, 2, 3, 4, 5, 6, 7, 8, 9, 10, 11, 12, 13, 14, 15, 16, 17, 18, 19, 20, 21, 22, 23, 24, 25, 26, 27, 28, 29, 30, 31, 32, 33, 34, 35, 36, 37, 38, 39, 40, 41, 42, 43, 44, 45, 46, 47, 48, 49, 50, 51, 52, 53, 54, 55, 56, 57, 58, 59, 60, 61, 62, 63, 64, 65, 66, 67, 68, 69, 70, 71, 72, 73, 74, 75, 76, 77, 78, 79, 80, 81, 82, 83, 84, 85, 86, 87, 88, 89, 90, 91, 92, 93, 94, 95, 96, 97, 98, 99, 100, 101, 102, 103, 104, 105, 106, 107, 108, 109, 110, 111, 112, 113, 114, 115, 116, 117, 118, 119, 120, 121, 122, 123, 124, 125, 126, 127, 128, 129, 130, 131, 132, 133, 134, 135, 136, 137, 138, 139, 140, 141, 142, 143, 144, 145, 146, 147, 148, 149, 150, 151, 152, 153, 154, 155, 156, 157, 158, 159, 160, 161, 162, 163, 164, 165, 166, 167, 168, 169, 170, 171, 172, 173, 174, 175, 176, 177, 178, 179, 180, 181, 182, 183, 184, 185, 186, 187, 188, 189, 190, 191, 192, 193, 194, 195, 196, 197, 198, 199, 200, 201, 202, 203, 204, 205, 206, 207, 208, 209, 210, 211, 212, 213, 214, 215, 216, 217, 218, 219, 220, 221, 222, 223, 224, 225, 226, 227, 228, 229, 230, 231, 232, 233, 234, 235, 236, 237, 238, 239, 240, 241, 242, 243, 244, 245, 246, 247, 248, 249, 250, 251, 252, 253, 254, 255, 256, 257, 258, 259, 260, 261, 262, 263, 264],
      "AcquisitionTime": ["104613.520000", "104614.520000", "104615.520000", "104616.520000", "104617.520000", "104618.520000", "104619.520000", "104620.520000", "104621.520000", "104622.520000", "104623.520000", "104624.520000", "104625.520000", "104626.520000", "104627.520000", "104628.520000", "104629.520000", "104630.520000", "104631.520000", "104632.520000", "104633.520000", "104634.520000", "104635.520000", "104636.520000", "104637.520000", "104638.520000", "104639.520000", "104640.520000", "104641.520000", "104642.520000", "104643.520000", "104644.520000", "104645.520000", "104646.520000", "104647.520000", "104648.520000", "104649.520000", "104650.520000", "104651.520000", "104652.520000", "104653.520000", "104654.520000", "104655.520000", "104656.520000", "104657.520000", "104658.520000", "104659.520000", "104700.520000", "104701.520000", "104702.520000", "104703.520000", "104704.520000", "104705.520000", "104706.520000", "104707.520000", "104708.520000", "104709.520000", "104710.520000", "104711.520000", "104712.520000", "104713.520000", "104714.520000", "104715.520000", "104716.520000", "104717.520000", "104718.520000", "104719.520000", "104720.520000", "104721.520000", "104722.520000", "104723.520000", "104724.520000", "104725.520000", "104726.520000", "104727.520000", "104728.520000", "104729.520000", "104730.520000", "104731.520000", "104732.520000", "104733.520000", "104734.520000", "104735.520000", "104736.520000", "104737.520000", "104738.520000", "104739.520000", "104740.520000", "104741.520000", "104742.520000", "104743.520000", "104744.520000", "104745.520000", "104746.520000", "104747.520000", "104748.520000", "104749.520000", "104750.520000", "104751.520000", "104752.520000", "104753.520000", "104754.520000", "104755.520000", "104756.520000", "104757.520000", "104758.520000", "104759.520000", "104800.520000", "104801.520000", "104802.520000", "104803.520000", "104804.520000", "104805.520000", "104806.520000", "104807.520000", "104808.520000", "104809.520000", "104810.520000", "104811.520000", "104812.520000", "104813.520000", "104814.520000", "104815.520000", "104816.520000", "104817.520000", "104818.520000", "104819.520000", "104820.520000", "104821.520000", "104822.520000", "104823.520000", "104824.520000", "104825.520000", "104826.520000", "104827.520000", "104828.520000", "104829.520000", "104830.520000", "104831.520000", "104832.520000", "104833.520000", "104834.520000", "104835.520000", "104836.520000", "104837.520000", "104838.520000", "104839.520000", "104840.520000", "104841.520000", "104842.520000", "104843.520000", "104844.520000", "104845.520000", "104846.520000", "104847.520000", "104848.520000", "104849.520000", "104850.520000", "104851.520000", "104852.520000", "104853.520000", "104854.520000", "104855.520000", "104856.520000", "104857.520000", "104858.520000", "104859.520000", "104900.520000", "104901.520000", "104902.520000", "104903.520000", "104904.520000", "104905.520000", "104906.520000", "104907.520000", "104908.520000", "104909.520000", "104910.520000", "104911.520000", "104912.520000", "104913.520000", "104914.520000", "104915.520000", "104916.520000", "104917.520000", "104918.520000", "104919.520000", "104920.520000", "104921.520000", "104922.520000", "104923.520000", "104924.520000", "104925.520000", "104926.520000", "104927.520000", "104928.520000", "104929.520000", "104930.520000", "104931.520000", "104932.520000", "104933.520000", "104934.520000", "104935.520000", "104936.520000", "104937.520000", "104938.520000", "104939.520000", "104940.520000", "104941.520000", "104942.520000", "104943.520000", "104944.520000", "104945.520000", "104946.520000", "104947.520000", "104948.520000", "104949.520000", "104950.520000", "104951.520000", "104952.520000", "104953.520000", "104954.520000", "104955.520000", "104956.520000", "104957.520000", "104958.520000", "104959.520000", "105000.520000", "105001.520000", "105002.520000", "105003.520000", "105004.520000", "105005.520000", "105006.520000", "105007.520000", "105008.520000", "105009.520000", "105010.520000", "105011.520000", "105012.520000", "105013.520000", "105014.520000", "105015.520000", "105016.520000", "105017.520000", "105018.520000", "105019.520000", "105020.520000", "105021.520000", "105022.520000", "105023.520000", "105024.520000", "105025.520000", "105026.520000", "105027.520000", "105028.520000", "105029.520000", "105030.520000", "105031.520000", "105032.520000", "105033.520000", "105034.520000", "105035.520000", "105036.520000"],
      "ContentTime": ["104719.698000", "104719.702000", "104719.705000", "104719.708000", "104719.711000", "104719.713000", "104719.716000", "104719.719000", "104719.722000", "104719.725000", "104719.732000", "104719.735000", "104719.738000", "104719.741000", "104719.743000", "104719.746000", "104719.749000", "104719.752000", "104719.755000", "104719.758000", "104719.761000", "104739.663000", "104739.666000", "104739.685000", "104739.688000", "104739.691000", "104739.694000", "104739.697000", "104739.700000", "104739.703000", "104739.705000", "104739.708000", "104739.711000", "104739.714000", "104739.717000", "104739.720000", "104739.723000", "104739.726000", "104739.729000", "104739.731000", "104739.734000", "104739.737000", "104739.740000", "104739.743000", "104739.746000", "104739.749000", "104739.752000", "104739.755000", "104739.758000", "104759.664000", "104759.667000", "104759.670000", "104759.673000", "104759.675000", "104759.678000", "104759.681000", "104759.684000", "104759.687000", "104759.690000", "104759.693000", "104759.696000", "104759.699000", "104759.701000", "104759.704000", "104759.707000", "104759.710000", "104759.713000", "104759.716000", "104759.719000", "104759.722000", "104759.724000", "104759.727000", "104759.730000", "104759.733000", "104759.736000", "104759.739000", "104759.742000", "104819.664000", "104819.667000", "104819.670000", "104819.673000", "104819.676000", "104819.679000", "104819.681000", "104819.684000", "104819.687000", "104819.690000", "104819.693000", "104819.696000", "104819.699000", "104819.702000", "104819.705000", "104819.707000", "104819.710000", "104819.713000", "104819.716000", "104819.719000", "104819.722000", "104819.725000", "104819.728000", "104819.731000", "104819.734000", "104819.737000", "104819.739000", "104819.742000", "104819.745000", "104839.664000", "104839.667000", "104839.670000", "104839.673000", "104839.676000", "104839.678000", "104839.681000", "104839.684000", "104839.687000", "104839.690000", "104839.693000", "104839.696000", "104839.699000", "104839.702000", "104839.705000", "104839.707000", "104839.710000", "104839.713000", "104839.716000", "104839.719000", "104839.722000", "104839.725000", "104839.728000", "104839.731000", "104839.733000", "104839.743000", "104839.746000", "104839.749000", "104859.664000", "104859.667000", "104859.670000", "104859.673000", "104859.676000", "104859.679000", "104859.681000", "104859.684000", "104859.687000", "104859.690000", "104859.693000", "104859.696000", "104859.699000", "104859.702000", "104859.705000", "104859.708000", "104859.711000", "104859.713000", "104859.716000", "104859.719000", "104859.722000", "104859.725000", "104859.728000", "104859.731000", "104859.734000", "104859.737000", "104859.740000", "104859.743000", "104919.664000", "104919.667000", "104919.670000", "104919.673000", "104919.676000", "104919.678000", "104919.681000", "104919.684000", "104919.687000", "104919.690000", "104919.693000", "104919.696000", "104919.699000", "104919.702000", "104919.705000", "104919.708000", "104919.711000", "104919.713000", "104919.716000", "104919.719000", "104919.722000", "104919.725000", "104919.728000", "104939.663000", "104939.666000", "104939.669000", "104939.672000", "104939.675000", "104939.677000", "104939.680000", "104939.683000", "104939.686000", "104939.689000", "104939.692000", "104939.695000", "104939.698000", "104939.701000", "104939.704000", "104939.707000", "104939.710000", "104939.712000", "104939.715000", "104939.718000", "104959.663000", "104959.666000", "104959.669000", "104959.672000", "104959.675000", "104959.691000", "104959.694000", "104959.696000", "104959.699000", "104959.702000", "104959.705000", "104959.708000", "104959.711000", "104959.714000", "104959.717000", "104959.720000", "104959.722000", "104959.725000", "104959.728000", "104959.731000", "105019.664000", "105019.667000", "105019.670000", "105019.673000", "105019.676000", "105019.679000", "105019.681000", "105019.684000", "105019.687000", "105019.690000", "105019.693000", "105019.696000", "105019.699000", "105019.702000", "105019.705000", "105019.707000", "105019.710000", "105019.713000", "105019.716000", "105019.719000", "105038.350000", "105038.354000", "105038.357000", "105038.360000", "105038.363000", "105038.366000", "105038.369000", "105038.372000", "105038.375000", "105038.377000", "105038.380000", "105038.383000", "105038.386000", "105038.389000", "105038.392000", "105038.395000", "105038.398000", "105038.401000", "105038.404000"],
      "InstanceCreationTime": ["104719.698000", "104719.702000", "104719.705000", "104719.708000", "104719.711000", "104719.713000", "104719.716000", "104719.719000", "104719.722000", "104719.725000", "104719.732000", "104719.735000", "104719.738000", "104719.741000", "104719.743000", "104719.746000", "104719.749000", "104719.752000", "104719.755000", "104719.758000", "104719.761000", "104739.663000", "104739.666000", "104739.685000", "104739.688000", "104739.691000", "104739.694000", "104739.697000", "104739.700000", "104739.703000", "104739.705000", "104739.708000", "104739.711000", "104739.714000", "104739.717000", "104739.720000", "104739.723000", "104739.726000", "104739.729000", "104739.731000", "104739.734000", "104739.737000", "104739.740000", "104739.743000", "104739.746000", "104739.749000", "104739.752000", "104739.755000", "104739.758000", "104759.664000", "104759.667000", "104759.670000", "104759.673000", "104759.675000", "104759.678000", "104759.681000", "104759.684000", "104759.687000", "104759.690000", "104759.693000", "104759.696000", "104759.699000", "104759.701000", "104759.704000", "104759.707000", "104759.710000", "104759.713000", "104759.716000", "104759.719000", "104759.722000", "104759.724000", "104759.727000", "104759.730000", "104759.733000", "104759.736000", "104759.739000", "104759.742000", "104819.664000", "104819.667000", "104819.670000", "104819.673000", "104819.676000", "104819.679000", "104819.681000", "104819.684000", "104819.687000", "104819.690000", "104819.693000", "104819.696000", "104819.699000", "104819.702000", "104819.705000", "104819.707000", "104819.710000", "104819.713000", "104819.716000", "104819.719000", "104819.722000", "104819.725000", "104819.728000", "104819.731000", "104819.734000", "104819.737000", "104819.739000", "104819.742000", "104819.745000", "104839.664000", "104839.667000", "104839.670000", "104839.673000", "104839.676000", "104839.678000", "104839.681000", "104839.684000", "104839.687000", "104839.690000", "104839.693000", "104839.696000", "104839.699000", "104839.702000", "104839.705000", "104839.707000", "104839.710000", "104839.713000", "104839.716000", "104839.719000", "104839.722000", "104839.725000", "104839.728000", "104839.731000", "104839.733000", "104839.743000", "104839.746000", "104839.749000", "104859.664000", "104859.667000", "104859.670000", "104859.673000", "104859.676000", "104859.679000", "104859.681000", "104859.684000", "104859.687000", "104859.690000", "104859.693000", "104859.696000", "104859.699000", "104859.702000", "104859.705000", "104859.708000", "104859.711000", "104859.713000", "104859.716000", "104859.719000", "104859.722000", "104859.725000", "104859.728000", "104859.731000", "104859.734000", "104859.737000", "104859.740000", "104859.743000", "104919.664000", "104919.667000", "104919.670000", "104919.673000", "104919.676000", "104919.678000", "104919.681000", "104919.684000", "104919.687000", "104919.690000", "104919.693000", "104919.696000", "104919.699000", "104919.702000", "104919.705000", "104919.708000", "104919.711000", "104919.713000", "104919.716000", "104919.719000", "104919.722000", "104919.725000", "104919.728000", "104939.663000", "104939.666000", "104939.669000", "104939.672000", "104939.675000", "104939.677000", "104939.680000", "104939.683000", "104939.686000", "104939.689000", "104939.692000", "104939.695000", "104939.698000", "104939.701000", "104939.704000", "104939.707000", "104939.710000", "104939.712000", "104939.715000", "104939.718000", "104959.663000", "104959.666000", "104959.669000", "104959.672000", "104959.675000", "104959.691000", "104959.694000", "104959.696000", "104959.699000", "104959.702000", "104959.705000", "104959.708000", "104959.711000", "104959.714000", "104959.717000", "104959.720000", "104959.722000", "104959.725000", "104959.728000", "104959.731000", "105019.664000", "105019.667000", "105019.670000", "105019.673000", "105019.676000", "105019.679000", "105019.681000", "105019.684000", "105019.687000", "105019.690000", "105019.693000", "105019.696000", "105019.699000", "105019.702000", "105019.705000", "105019.707000", "105019.710000", "105019.713000", "105019.716000", "105019.719000", "105038.350000", "105038.354000", "105038.357000", "105038.360000", "105038.363000", "105038.366000", "105038.369000", "105038.372000", "105038.375000", "105038.377000", "105038.380000", "105038.383000", "105038.386000", "105038.389000", "105038.392000", "105038.395000", "105038.398000", "105038.401000", "105038.404000"],
      "InstanceNumber": [1, 2, 3, 4, 5, 6, 7, 8, 9, 10, 11, 12, 13, 14, 15, 16, 17, 18, 19, 20, 21, 22, 23, 24, 25, 26, 27, 28, 29, 30, 31, 32, 33, 34, 35, 36, 37, 38, 39, 40, 41, 42, 43, 44, 45, 46, 47, 48, 49, 50, 51, 52, 53, 54, 55, 56, 57, 58, 59, 60, 61, 62, 63, 64, 65, 66, 67, 68, 69, 70, 71, 72, 73, 74, 75, 76, 77, 78, 79, 80, 81, 82, 83, 84, 85, 86, 87, 88, 89, 90, 91, 92, 93, 94, 95, 96, 97, 98, 99, 100, 101, 102, 103, 104, 105, 106, 107, 108, 109, 110, 111, 112, 113, 114, 115, 116, 117, 118, 119, 120, 121, 122, 123, 124, 125, 126, 127, 128, 129, 130, 131, 132, 133, 134, 135, 136, 137, 138, 139, 140, 141, 142, 143, 144, 145, 146, 147, 148, 149, 150, 151, 152, 153, 154, 155, 156, 157, 158, 159, 160, 161, 162, 163, 164, 165, 166, 167, 168, 169, 170, 171, 172, 173, 174, 175, 176, 177, 178, 179, 180, 181, 182, 183, 184, 185, 186, 187, 188, 189, 190, 191, 192, 193, 194, 195, 196, 197, 198, 199, 200, 201, 202, 203, 204, 205, 206, 207, 208, 209, 210, 211, 212, 213, 214, 215, 216, 217, 218, 219, 220, 221, 222, 223, 224, 225, 226, 227, 228, 229, 230, 231, 232, 233, 234, 235, 236, 237, 238, 239, 240, 241, 242, 243, 244, 245, 246, 247, 248, 249, 250, 251, 252, 253, 254, 255, 256, 257, 258, 259, 260, 261, 262, 263, 264],
      "LargestImagePixelValue": [35876, 35473, 35385, 34794, 35228, 35000, 35522, 35176, 35009, 34911, 34361, 34262, 34406, 34217, 34099, 34074, 34473, 34323, 34019, 34024, 33892, 33900, 34092, 33785, 34010, 33963, 34124, 34234, 34481, 34326, 34049, 34615, 34311, 34647, 34218, 34717, 34651, 33798, 33878, 34819, 33872, 34108, 34769, 34227, 34381, 33995, 33526, 33870, 34013, 33866, 34160, 34285, 33346, 33956, 34211, 33385, 33676, 34109, 33711, 34164, 34272, 34283, 34565, 34053, 34119, 34384, 34321, 34382, 34413, 34493, 34723, 34108, 34172, 34212, 34004, 34037, 33921, 34097, 34442, 33859, 33767, 34371, 33957, 34205, 34654, 33691, 33675, 34089, 33405, 33842, 34219, 33793, 34766, 33788, 34117, 34438, 34041, 34518, 34608, 34543, 34569, 34241, 34618, 33793, 34292, 34551, 34098, 34268, 34846, 33887, 33857, 34590, 33887, 34157, 34238, 34419, 34408, 34145, 33877, 34277, 33616, 34131, 34063, 33901, 34506, 34585, 34354, 34199, 34257, 34331, 34658, 34459, 34397, 34156, 34327, 34282, 34248, 34326, 34405, 34068, 34146, 34480, 34234, 34452, 34052, 33891, 34046, 33666, 34183, 33694, 34016, 34458, 34151, 34242, 34533, 34028, 34653, 34025, 34197, 34385, 34010, 34419, 34458, 33842, 33926, 33902, 33929, 34413, 34742, 34370, 34673, 34476, 34380, 34500, 34475, 34018, 34254, 33959, 34042, 34263, 33944, 34611, 34443, 34306, 34409, 34337, 34828, 34594, 34869, 34569, 34565, 33939, 34391, 34175, 34298, 34628, 33859, 34725, 34351, 34389, 34044, 33919, 34153, 34234, 34064, 33967, 33845, 34137, 34268, 35019, 33849, 34538, 34198, 33957, 34368, 34550, 34175, 34428, 34122, 34510, 34318, 34169, 34061, 33923, 34046, 34102, 33996, 34199, 34280, 34301, 34358, 34381, 34305, 34088, 34662, 34610, 33923, 33944, 34086, 34167, 34073, 34375, 33907, 34079, 34164, 34228, 34196, 34234, 34541, 34903, 34568, 34529, 34061, 34240, 33681, 33663, 33859, 34056, 34132, 34704, 34213, 34244, 33891, 33506],
      "WindowCenter": [9499.0, 9466.0, 9456.0, 9447.0, 9447.0, 9446.0, 9451.0, 9438.0, 9429.0, 9422.0, 9416.0, 9416.0, 9429.0, 9423.0, 9423.0, 9419.0, 9428.0, 9416.0, 9411.0, 9416.0, 9412.0, 9419.0, 9426.0, 9429.0, 9429.0, 9430.0, 9445.0, 9443.0, 9451.0, 9439.0, 9431.0, 9442.0, 9436.0, 9442.0, 9438.0, 9443.0, 9435.0, 9421.0, 9414.0, 9431.0, 9421.0, 9426.0, 9439.0, 9427.0, 9425.0, 9419.0, 9419.0, 9428.0, 9439.0, 9447.0, 9444.0, 9430.0, 9416.0, 9420.0, 9425.0, 9415.0, 9421.0, 9426.0, 9422.0, 9427.0, 9433.0, 9427.0, 9435.0, 9429.0, 9437.0, 9437.0, 9443.0, 9438.0, 9441.0, 9435.0, 9435.0, 9428.0, 9427.0, 9427.0, 9425.0, 9420.0, 9416.0, 9416.0, 9422.0, 9411.0, 9417.0, 9424.0, 9418.0, 9425.0, 9429.0, 9411.0, 9412.0, 9416.0, 9413.0, 9428.0, 9433.0, 9428.0, 9447.0, 9429.0, 9433.0, 9439.0, 9421.0, 9447.0, 9448.0, 9451.0, 9451.0, 9434.0, 9426.0, 9413.0, 9423.0, 9426.0, 9426.0, 9426.0, 9439.0, 9428.0, 9426.0, 9432.0, 9427.0, 9426.0, 9427.0, 9440.0, 9437.0, 9436.0, 9438.0, 9443.0, 9430.0, 9435.0, 9427.0, 9421.0, 9434.0, 9433.0, 9435.0, 9443.0, 9443.0, 9445.0, 9442.0, 9435.0, 9429.0, 9420.0, 9419.0, 9419.0, 9419.0, 9433.0, 9432.0, 9421.0, 9428.0, 9431.0, 9427.0, 9434.0, 9428.0, 9427.0, 9421.0, 9420.0, 9428.0, 9422.0, 9429.0, 9442.0, 9435.0, 9427.0, 9423.0, 9419.0, 9431.0, 9421.0, 9420.0, 9419.0, 9404.0, 9413.0, 9413.0, 9409.0, 9409.0, 9418.0, 9426.0, 9440.0, 9448.0, 9435.0, 9434.0, 9433.0, 9425.0, 9425.0, 9431.0, 9426.0, 9434.0, 9436.0, 9436.0, 9444.0, 9446.0, 9452.0, 9460.0, 9447.0, 9438.0, 9429.0, 9433.0, 9434.0, 9439.0, 9433.0, 9426.0, 9415.0, 9419.0, 9418.0, 9424.0, 9424.0, 9419.0, 9430.0, 9417.0, 9424.0, 9412.0, 9419.0, 9418.0, 9418.0, 9417.0, 9411.0, 9410.0, 9415.0, 9411.0, 9420.0, 9404.0, 9415.0, 9416.0, 9412.0, 9418.0, 9424.0, 9419.0, 9424.0, 9417.0, 9422.0, 9418.0, 9424.0, 9420.0, 9420.0, 9421.0, 9434.0, 9433.0, 9434.0, 9427.0, 9419.0, 9425.0, 9425.0, 9427.0, 9427.0, 9424.0, 9423.0, 9411.0, 9417.0, 9425.0, 9419.0, 9420.0, 9417.0, 9410.0, 9410.0, 9410.0, 9416.0, 9417.0, 9419.0, 9432.0, 9440.0, 9442.0, 9436.0, 9422.0, 9418.0, 9405.0, 9403.0, 9409.0, 9408.0, 9408.0, 9413.0, 9408.0, 9408.0, 9400.0, 9393.0],
      "WindowWidth": [20305.0, 20226.0, 20199.0, 20177.0, 20178.0, 20171.0, 20178.0, 20151.0, 20128.0, 20115.0, 20103.0, 20103.0, 20128.0, 20116.0, 20116.0, 20112.0, 20125.0, 20106.0, 20097.0, 20106.0, 20101.0, 20115.0, 20129.0, 20140.0, 20140.0, 20145.0, 20176.0, 20172.0, 20188.0, 20168.0, 20150.0, 20170.0, 20160.0, 20169.0, 20163.0, 20172.0, 20154.0, 20124.0, 20108.0, 20138.0, 20122.0, 20131.0, 20155.0, 20131.0, 20122.0, 20110.0, 20110.0, 20134.0, 20161.0, 20179.0, 20171.0, 20140.0, 20113.0, 20112.0, 20120.0, 20109.0, 20121.0, 20129.0, 20125.0, 20134.0, 20143.0, 20135.0, 20150.0, 20141.0, 20157.0, 20159.0, 20169.0, 20163.0, 20163.0, 20151.0, 20151.0, 20137.0, 20136.0, 20135.0, 20127.0, 20117.0, 20105.0, 20102.0, 20114.0, 20096.0, 20109.0, 20121.0, 20112.0, 20124.0, 20129.0, 20095.0, 20098.0, 20103.0, 20104.0, 20133.0, 20141.0, 20137.0, 20170.0, 20136.0, 20142.0, 20151.0, 20121.0, 20171.0, 20175.0, 20184.0, 20182.0, 20145.0, 20125.0, 20103.0, 20119.0, 20128.0, 20131.0, 20134.0, 20159.0, 20139.0, 20131.0, 20140.0, 20135.0, 20133.0, 20134.0, 20161.0, 20154.0, 20157.0, 20163.0, 20167.0, 20143.0, 20150.0, 20133.0, 20121.0, 20146.0, 20145.0, 20152.0, 20167.0, 20170.0, 20174.0, 20166.0, 20150.0, 20138.0, 20117.0, 20114.0, 20113.0, 20114.0, 20143.0, 20140.0, 20124.0, 20135.0, 20138.0, 20131.0, 20147.0, 20135.0, 20135.0, 20122.0, 20118.0, 20135.0, 20123.0, 20138.0, 20161.0, 20144.0, 20126.0, 20114.0, 20110.0, 20135.0, 20119.0, 20118.0, 20112.0, 20083.0, 20092.0, 20091.0, 20086.0, 20090.0, 20111.0, 20128.0, 20157.0, 20175.0, 20151.0, 20148.0, 20144.0, 20126.0, 20122.0, 20135.0, 20127.0, 20145.0, 20153.0, 20153.0, 20171.0, 20178.0, 20190.0, 20207.0, 20181.0, 20161.0, 20140.0, 20144.0, 20147.0, 20157.0, 20146.0, 20131.0, 20111.0, 20114.0, 20112.0, 20125.0, 20125.0, 20116.0, 20129.0, 20105.0, 20119.0, 20100.0, 20113.0, 20109.0, 20110.0, 20110.0, 20096.0, 20094.0, 20102.0, 20097.0, 20111.0, 20083.0, 20103.0, 20106.0, 20102.0, 20114.0, 20124.0, 20114.0, 20121.0, 20107.0, 20116.0, 20109.0, 20123.0, 20118.0, 20119.0, 20122.0, 20145.0, 20145.0, 20147.0, 20131.0, 20115.0, 20128.0, 20129.0, 20135.0, 20132.0, 20123.0, 20120.0, 20098.0, 20109.0, 20124.0, 20114.0, 20116.0, 20106.0, 20091.0, 20092.0, 20091.0, 20104.0, 20109.0, 20115.0, 20142.0, 20161.0, 20167.0, 20155.0, 20121.0, 20108.0, 20081.0, 20075.0, 20086.0, 20085.0, 20083.0, 20091.0, 20080.0, 20080.0, 20063.0, 20049.0]
    },
    "slices": {}
  },
  "NumberOfVolumes": 264
}