{
  "AcquisitionMatrixPE": 104,
  "AcquisitionNumber": 1,
  "AcquisitionTime": "10:16:9.432500",
  "BandwidthPerPixelPhaseEncode": 16.578,
  "BaseResolution": 104,
  "BodyPartExamined": "BRAIN",
  "ConsistencyInfo": "N4_VE11C_LATEST_20160120",
  "ConversionSoftware": "dcm2niix",
  "ConversionSoftwareVersion": "v1.0.20190410  GCC6.3.0",
  "DerivedVendorReportedEchoSpacing": 0.000580009,
  "DeviceSerialNumber": "166018",
  "DwellTime": 2.1e-06,
  "EchoTime": 0.037,
  "EchoTrainLength": 104,
  "EffectiveEchoSpacing": 0.000580009,
  "FlipAngle": 68,
  "ImageComments": "Unaliased_MB6_PE3_LB",
  "ImageOrientationPatientDICOM": [0.995696, 0.0788746, 0.0486709, -0.0731194, 0.99119, -0.110436],
  "ImageType": [
    "ORIGINAL",
    "PRIMARY",
    "M",
    "MB",
    "ND",
    "MOSAIC"
],
  "ImagingFrequency": 123.191,
  "InPlanePhaseEncodingDirectionDICOM": "COL",
  "InstitutionAddress": "Washington_Place_6_NYC_NYC_US_10003",
  "InstitutionName": "NYU_-_CBI",
  "InstitutionalDepartmentName": "Department",
  "MRAcquisitionType": "2D",
  "MagneticFieldStrength": 3,
  "Manufacturer": "Siemens",
  "ManufacturersModelName": "Prisma",
  "Modality": "MR",
  "MultibandAccelerationFactor": 6,
  "PartialFourier": 1,
  "PatientPosition": "HFS",
  "PercentPhaseFOV": 100,
  "PhaseEncodingDirection": "j",
  "PhaseEncodingSteps": 104,
  "PhaseResolution": 1,
  "PixelBandwidth": 2290,
  "ProcedureStepDescription": "Investigators_Winawer",
  "ProtocolName": "cmrr_mbepi_s6_2mm_66sl_PA_TR1.0",
  "PulseSequenceDetails": "%CustomerSeq%_cmrr_mbep2d_bold",
  "ReceiveCoilActiveElements": "HC1-7",
  "ReceiveCoilName": "HeadNeck_64",
  "ReconMatrixPE": 104,
  "RepetitionTime": 1,
  "SAR": 0.0660545,
  "ScanOptions": "FS",
  "ScanningSequence": "EP",
  "SequenceName": "epfid2d1_104",
  "SequenceVariant": "SK_SS",
  "SeriesDescription": "cmrr_mbepi_s6_2mm_66sl_PA_TR1.0",
  "SeriesNumber": 10,
  "ShimSetting": [274, -12672, -8479, 381, -35, -122, 118, 21],
  "SliceThickness": 2,
  "SliceTiming": [0, 0.5325, 0.0875, 0.6225, 0.1775, 0.7125, 0.2675, 0.8, 0.355, 0.89, 0.445, 0, 0.5325, 0.0875, 0.6225, 0.1775, 0.7125, 0.2675, 0.8, 0.355, 0.89, 0.445, 0, 0.5325, 0.0875, 0.6225, 0.1775, 0.7125, 0.2675, 0.8, 0.355, 0.89, 0.445, 0, 0.5325, 0.0875, 0.6225, 0.1775, 0.7125, 0.2675, 0.8, 0.355, 0.89, 0.445, 0, 0.5325, 0.0875, 0.6225, 0.1775, 0.7125, 0.2675, 0.8, 0.355, 0.89, 0.445, 0, 0.5325, 0.0875, 0.6225, 0.1775, 0.7125, 0.2675, 0.8, 0.355, 0.89, 0.445],
  "SoftwareVersions": "syngo_MR_E11",
  "SpacingBetweenSlices": 2,
  "StationName": "AWP166018",
  "TaskName": "sfprescaled",
  "TotalReadoutTime": 0.0597409,
  "TxRefAmp": 209.82,
  "WipMemBlock": "a68301ee-54fa-4dd2-bcf7-e21c28b827f8||Sequence: R016 ve11c/master r/8780670; Nov 27 2017 15:05:12 by eja",
  "dcmmeta_affine": [
    [-1.9913914203643799, -0.14623871445655823, 0.11390535533428192, 115.16291809082031],
    [-0.15774911642074585, 1.9823797941207886, -0.21280448138713837, -77.2774887084961],
    [0.09734170883893967, 0.22087274491786957, 1.9853814840316772, -62.98719787597656],
    [0.0, 0.0, 0.0, 1.0]
],
  "dcmmeta_reorient_transform": [
    [0.0, -1.0, 0.0, 103.0],
    [1.0, 0.0, 0.0, 0.0],
    [0.0, 0.0, 1.0, 0.0],
    [0.0, 0.0, 0.0, 1.0]
],
  "dcmmeta_shape": [104, 104, 66, 264],
  "dcmmeta_slice_dim": 2,
  "dcmmeta_version": 0.6,
  "global": {
    "const": {
      "AccessionNumber": "k5wn3c39",
      "AcquisitionMatrix": [104, 0, 0, 104],
      "AngioFlag": "N",
      "BitsAllocated": 16,
      "BitsStored": 16,
      "BodyPartExamined": "BRAIN",
      "Columns": 936,
      "EchoNumbers": 1,
      "EchoTime": 37.0,
      "EchoTrainLength": 104,
      "FlipAngle": 68.0,
      "HighBit": 15,
      "ImageOrientationPatient": [0.99569571235421, 0.0788745612633, 0.04867085354677, -0.0731193607776, 0.99118987433686, -0.110436371235],
      "ImagePositionPatient": [-867.68385269473, -1017.2012328567, 11.151605366727],
      "ImageType": [
        "ORIGINAL",
        "PRIMARY",
        "M",
        "MB",
        "ND",
        "MOSAIC"
],
      "ImagedNucleus": "1H",
      "ImagingFrequency": 123.190767,
      "InPlanePhaseEncodingDirection": "COL",
      "MRAcquisitionType": "2D",
      "MagneticFieldStrength": 3.0,
      "Manufacturer": "SIEMENS",
      "ManufacturerModelName": "Prisma",
      "Modality": "MR",
      "NumberOfAverages": 1.0,
      "NumberOfPhaseEncodingSteps": 104,
      "PercentPhaseFieldOfView": 100.0,
      "PercentSampling": 100.0,
      "PerformedProcedureStepStartTime": "095825.235000",
      "PhotometricInterpretation": "MONOCHROME2",
      "PixelBandwidth": 2290.0,
      "PixelRepresentation": 0,
      "PixelSpacing": [2.0, 2.0],
      "ProtocolName": "cmrr_mbepi_s6_2mm_66sl_PA_TR1.0",
      "RepetitionTime": 1000.0,
      "Rows": 936,
      "SAR": 0.06605454481919,
      "SamplesPerPixel": 1,
      "ScanOptions": "FS",
      "ScanningSequence": "EP",
      "SequenceName": "epfid2d1_104",
      "SequenceVariant": [
        "SK",
        "SS"
],
      "SeriesDescription": "cmrr_mbepi_s6_2mm_66sl_PA_TR1.0",
      "SeriesNumber": 10,
      "SeriesTime": "101719.716000",
      "SliceLocation": -47.74547499016,
      "SliceThickness": 2.0,
      "SmallestImagePixelValue": 0,
      "SoftwareVersions": "syngo MR E11",
      "SpacingBetweenSlices": 1.9999999638954,
      "SpecificCharacterSet": "ISO_IR 100",
      "StudyID": "1",
      "StudyTime": "095825.175000",
      "TransmitCoilName": "Body",
      "VariableFlipAngleFlag": "N",
      "WindowCenterWidthExplanation": "Algo1",
      "dBdt": 0.0},
    "slices": {}
  },
  "time": {
    "samples": {
      "AcquisitionNumber": [1, 2, 3, 4, 5, 6, 7, 8, 9, 10, 11, 12, 13, 14, 15, 16, 17, 18, 19, 20, 21, 22, 23, 24, 25, 26, 27, 28, 29, 30, 31, 32, 33, 34, 35, 36, 37, 38, 39, 40, 41, 42, 43, 44, 45, 46, 47, 48, 49, 50, 51, 52, 53, 54, 55, 56, 57, 58, 59, 60, 61, 62, 63, 64, 65, 66, 67, 68, 69, 70, 71, 72, 73, 74, 75, 76, 77, 78, 79, 80, 81, 82, 83, 84, 85, 86, 87, 88, 89, 90, 91, 92, 93, 94, 95, 96, 97, 98, 99, 100, 101, 102, 103, 104, 105, 106, 107, 108, 109, 110, 111, 112, 113, 114, 115, 116, 117, 118, 119, 120, 121, 122, 123, 124, 125, 126, 127, 128, 129, 130, 131, 132, 133, 134, 135, 136, 137, 138, 139, 140, 141, 142, 143, 144, 145, 146, 147, 148, 149, 150, 151, 152, 153, 154, 155, 156, 157, 158, 159, 160, 161, 162, 163, 164, 165, 166, 167, 168, 169, 170, 171, 172, 173, 174, 175, 176, 177, 178, 179, 180, 181, 182, 183, 184, 185, 186, 187, 188, 189, 190, 191, 192, 193, 194, 195, 196, 197, 198, 199, 200, 201, 202, 203, 204, 205, 206, 207, 208, 209, 210, 211, 212, 213, 214, 215, 216, 217, 218, 219, 220, 221, 222, 223, 224, 225, 226, 227, 228, 229, 230, 231, 232, 233, 234, 235, 236, 237, 238, 239, 240, 241, 242, 243, 244, 245, 246, 247, 248, 249, 250, 251, 252, 253, 254, 255, 256, 257, 258, 259, 260, 261, 262, 263, 264],
      "AcquisitionTime": ["101609.432500", "101610.432500", "101611.432500", "101612.432500", "101613.432500", "101614.432500", "101615.432500", "101616.432500", "101617.432500", "101618.432500", "101619.432500", "101620.432500", "101621.432500", "101622.432500", "101623.432500", "101624.432500", "101625.432500", "101626.432500", "101627.432500", "101628.432500", "101629.432500", "101630.432500", "101631.432500", "101632.432500", "101633.432500", "101634.432500", "101635.432500", "101636.432500", "101637.432500", "101638.432500", "101639.432500", "101640.432500", "101641.432500", "101642.432500", "101643.432500", "101644.432500", "101645.432500", "101646.432500", "101647.432500", "101648.432500", "101649.432500", "101650.432500", "101651.432500", "101652.432500", "101653.432500", "101654.432500", "101655.432500", "101656.432500", "101657.432500", "101658.432500", "101659.432500", "101700.432500", "101701.432500", "101702.432500", "101703.432500", "101704.432500", "101705.432500", "101706.432500", "101707.432500", "101708.432500", "101709.432500", "101710.432500", "101711.432500", "101712.432500", "101713.432500", "101714.432500", "101715.432500", "101716.432500", "101717.432500", "101718.432500", "101719.432500", "101720.432500", "101721.432500", "101722.432500", "101723.432500", "101724.432500", "101725.432500", "101726.432500", "101727.432500", "101728.432500", "101729.432500", "101730.432500", "101731.432500", "101732.432500", "101733.432500", "101734.432500", "101735.432500", "101736.432500", "101737.432500", "101738.432500", "101739.432500", "101740.432500", "101741.432500", "101742.432500", "101743.432500", "101744.432500", "101745.432500", "101746.432500", "101747.432500", "101748.432500", "101749.432500", "101750.432500", "101751.432500", "101752.432500", "101753.432500", "101754.432500", "101755.432500", "101756.432500", "101757.432500", "101758.432500", "101759.432500", "101800.432500", "101801.432500", "101802.432500", "101803.432500", "101804.432500", "101805.432500", "101806.432500", "101807.432500", "101808.432500", "101809.432500", "101810.432500", "101811.432500", "101812.432500", "101813.432500", "101814.432500", "101815.432500", "101816.432500", "101817.432500", "101818.432500", "101819.432500", "101820.432500", "101821.432500", "101822.432500", "101823.432500", "101824.432500", "101825.432500", "101826.432500", "101827.432500", "101828.432500", "101829.432500", "101830.432500", "101831.432500", "101832.432500", "101833.432500", "101834.432500", "101835.432500", "101836.432500", "101837.432500", "101838.432500", "101839.432500", "101840.432500", "101841.432500", "101842.432500", "101843.432500", "101844.432500", "101845.432500", "101846.432500", "101847.432500", "101848.432500", "101849.432500", "101850.432500", "101851.432500", "101852.432500", "101853.432500", "101854.432500", "101855.432500", "101856.432500", "101857.432500", "101858.432500", "101859.432500", "101900.432500", "101901.432500", "101902.432500", "101903.432500", "101904.432500", "101905.432500", "101906.432500", "101907.432500", "101908.432500", "101909.432500", "101910.432500", "101911.432500", "101912.432500", "101913.432500", "101914.432500", "101915.432500", "101916.432500", "101917.432500", "101918.432500", "101919.432500", "101920.432500", "101921.432500", "101922.432500", "101923.432500", "101924.432500", "101925.432500", "101926.432500", "101927.432500", "101928.432500", "101929.432500", "101930.432500", "101931.432500", "101932.432500", "101933.432500", "101934.432500", "101935.432500", "101936.432500", "101937.432500", "101938.432500", "101939.432500", "101940.432500", "101941.432500", "101942.432500", "101943.432500", "101944.432500", "101945.432500", "101946.432500", "101947.432500", "101948.432500", "101949.432500", "101950.432500", "101951.432500", "101952.432500", "101953.432500", "101954.432500", "101955.432500", "101956.432500", "101957.432500", "101958.432500", "101959.432500", "102000.432500", "102001.432500", "102002.432500", "102003.432500", "102004.432500", "102005.432500", "102006.432500", "102007.432500", "102008.432500", "102009.432500", "102010.432500", "102011.432500", "102012.432500", "102013.432500", "102014.432500", "102015.432500", "102016.432500", "102017.432500", "102018.432500", "102019.432500", "102020.432500", "102021.432500", "102022.432500", "102023.432500", "102024.432500", "102025.432500", "102026.432500", "102027.432500", "102028.432500", "102029.432500", "102030.432500", "102031.432500", "102032.432500"],
      "ContentTime": ["101719.718000", "101719.722000", "101719.725000", "101719.728000", "101719.730000", "101719.733000", "101719.736000", "101719.739000", "101719.742000", "101719.746000", "101719.749000", "101719.752000", "101719.755000", "101719.758000", "101719.763000", "101719.766000", "101719.769000", "101719.772000", "101719.775000", "101719.778000", "101719.781000", "101719.784000", "101739.664000", "101739.667000", "101739.670000", "101739.673000", "101739.676000", "101739.679000", "101739.682000", "101739.684000", "101739.687000", "101739.690000", "101739.706000", "101739.709000", "101739.712000", "101739.715000", "101739.718000", "101739.721000", "101739.724000", "101739.727000", "101739.730000", "101739.733000", "101739.740000", "101739.743000", "101739.746000", "101739.749000", "101739.752000", "101739.755000", "101739.757000", "101739.760000", "101759.664000", "101759.667000", "101759.670000", "101759.673000", "101759.676000", "101759.678000", "101759.681000", "101759.684000", "101759.687000", "101759.690000", "101759.693000", "101759.696000", "101759.699000", "101759.702000", "101759.704000", "101759.707000", "101759.710000", "101759.713000", "101759.716000", "101759.719000", "101759.722000", "101759.725000", "101759.728000", "101759.731000", "101759.733000", "101759.736000", "101759.739000", "101759.742000", "101759.745000", "101819.664000", "101819.667000", "101819.670000", "101819.673000", "101819.675000", "101819.678000", "101819.681000", "101819.684000", "101819.687000", "101819.690000", "101819.693000", "101819.696000", "101819.698000", "101819.701000", "101819.704000", "101819.707000", "101819.710000", "101819.713000", "101819.716000", "101819.719000", "101819.722000", "101819.725000", "101819.727000", "101819.730000", "101819.733000", "101819.736000", "101819.739000", "101819.742000", "101839.664000", "101839.667000", "101839.670000", "101839.673000", "101839.676000", "101839.678000", "101839.687000", "101839.690000", "101839.693000", "101839.696000", "101839.698000", "101839.701000", "101839.704000", "101839.707000", "101839.710000", "101839.713000", "101839.716000", "101839.719000", "101839.722000", "101839.724000", "101839.727000", "101839.730000", "101839.733000", "101839.736000", "101839.739000", "101839.742000", "101839.745000", "101839.748000", "101859.664000", "101859.667000", "101859.670000", "101859.672000", "101859.675000", "101859.678000", "101859.681000", "101859.684000", "101859.687000", "101859.690000", "101859.693000", "101859.695000", "101859.698000", "101859.701000", "101859.704000", "101859.707000", "101859.710000", "101859.713000", "101859.716000", "101859.719000", "101859.722000", "101859.724000", "101859.727000", "101859.730000", "101859.733000", "101859.736000", "101859.739000", "101859.742000", "101919.664000", "101919.667000", "101919.670000", "101919.673000", "101919.675000", "101919.678000", "101919.681000", "101919.684000", "101919.687000", "101919.690000", "101919.693000", "101919.696000", "101919.699000", "101919.702000", "101919.705000", "101919.708000", "101919.710000", "101919.713000", "101919.716000", "101919.719000", "101919.722000", "101919.725000", "101919.728000", "101919.731000", "101919.734000", "101919.737000", "101939.663000", "101939.666000", "101939.669000", "101939.672000", "101939.675000", "101939.677000", "101939.680000", "101939.692000", "101939.695000", "101939.711000", "101939.714000", "101939.717000", "101939.720000", "101939.723000", "101939.726000", "101939.729000", "101939.732000", "101939.735000", "101939.738000", "101939.740000", "101959.664000", "101959.667000", "101959.670000", "101959.673000", "101959.676000", "101959.678000", "101959.681000", "101959.684000", "101959.687000", "101959.690000", "101959.693000", "101959.696000", "101959.699000", "101959.701000", "101959.704000", "101959.707000", "101959.710000", "101959.713000", "101959.716000", "101959.719000", "102019.664000", "102019.667000", "102019.670000", "102019.683000", "102019.685000", "102019.688000", "102019.691000", "102019.694000", "102019.697000", "102019.700000", "102019.703000", "102019.706000", "102019.709000", "102019.712000", "102019.715000", "102019.718000", "102019.720000", "102019.724000", "102019.726000", "102019.729000", "102034.033000", "102034.037000", "102034.040000", "102034.043000", "102034.046000", "102034.049000", "102034.051000", "102034.054000", "102034.057000", "102034.060000", "102034.063000", "102034.066000", "102034.069000", "102034.072000", "102034.075000"],
      "InstanceCreationTime": ["101719.718000", "101719.722000", "101719.725000", "101719.728000", "101719.730000", "101719.733000", "101719.736000", "101719.739000", "101719.742000", "101719.746000", "101719.749000", "101719.752000", "101719.755000", "101719.758000", "101719.763000", "101719.766000", "101719.769000", "101719.772000", "101719.775000", "101719.778000", "101719.781000", "101719.784000", "101739.664000", "101739.667000", "101739.670000", "101739.673000", "101739.676000", "101739.679000", "101739.682000", "101739.684000", "101739.687000", "101739.690000", "101739.706000", "101739.709000", "101739.712000", "101739.715000", "101739.718000", "101739.721000", "101739.724000", "101739.727000", "101739.730000", "101739.733000", "101739.740000", "101739.743000", "101739.746000", "101739.749000", "101739.752000", "101739.755000", "101739.757000", "101739.760000", "101759.664000", "101759.667000", "101759.670000", "101759.673000", "101759.676000", "101759.678000", "101759.681000", "101759.684000", "101759.687000", "101759.690000", "101759.693000", "101759.696000", "101759.699000", "101759.702000", "101759.704000", "101759.707000", "101759.710000", "101759.713000", "101759.716000", "101759.719000", "101759.722000", "101759.725000", "101759.728000", "101759.731000", "101759.733000", "101759.736000", "101759.739000", "101759.742000", "101759.745000", "101819.664000", "101819.667000", "101819.670000", "101819.673000", "101819.675000", "101819.678000", "101819.681000", "101819.684000", "101819.687000", "101819.690000", "101819.693000", "101819.696000", "101819.698000", "101819.701000", "101819.704000", "101819.707000", "101819.710000", "101819.713000", "101819.716000", "101819.719000", "101819.722000", "101819.725000", "101819.727000", "101819.730000", "101819.733000", "101819.736000", "101819.739000", "101819.742000", "101839.664000", "101839.667000", "101839.670000", "101839.673000", "101839.676000", "101839.678000", "101839.687000", "101839.690000", "101839.693000", "101839.696000", "101839.698000", "101839.701000", "101839.704000", "101839.707000", "101839.710000", "101839.713000", "101839.716000", "101839.719000", "101839.722000", "101839.724000", "101839.727000", "101839.730000", "101839.733000", "101839.736000", "101839.739000", "101839.742000", "101839.745000", "101839.748000", "101859.664000", "101859.667000", "101859.670000", "101859.672000", "101859.675000", "101859.678000", "101859.681000", "101859.684000", "101859.687000", "101859.690000", "101859.693000", "101859.695000", "101859.698000", "101859.701000", "101859.704000", "101859.707000", "101859.710000", "101859.713000", "101859.716000", "101859.719000", "101859.722000", "101859.724000", "101859.727000", "101859.730000", "101859.733000", "101859.736000", "101859.739000", "101859.742000", "101919.664000", "101919.667000", "101919.670000", "101919.673000", "101919.675000", "101919.678000", "101919.681000", "101919.684000", "101919.687000", "101919.690000", "101919.693000", "101919.696000", "101919.699000", "101919.702000", "101919.705000", "101919.708000", "101919.710000", "101919.713000", "101919.716000", "101919.719000", "101919.722000", "101919.725000", "101919.728000", "101919.731000", "101919.734000", "101919.737000", "101939.663000", "101939.666000", "101939.669000", "101939.672000", "101939.675000", "101939.677000", "101939.680000", "101939.692000", "101939.695000", "101939.711000", "101939.714000", "101939.717000", "101939.720000", "101939.723000", "101939.726000", "101939.729000", "101939.732000", "101939.735000", "101939.738000", "101939.740000", "101959.664000", "101959.667000", "101959.670000", "101959.673000", "101959.676000", "101959.678000", "101959.681000", "101959.684000", "101959.687000", "101959.690000", "101959.693000", "101959.696000", "101959.699000", "101959.701000", "101959.704000", "101959.707000", "101959.710000", "101959.713000", "101959.716000", "101959.719000", "102019.664000", "102019.667000", "102019.670000", "102019.683000", "102019.685000", "102019.688000", "102019.691000", "102019.694000", "102019.697000", "102019.700000", "102019.703000", "102019.706000", "102019.709000", "102019.712000", "102019.715000", "102019.718000", "102019.720000", "102019.724000", "102019.726000", "102019.729000", "102034.033000", "102034.037000", "102034.040000", "102034.043000", "102034.046000", "102034.049000", "102034.051000", "102034.054000", "102034.057000", "102034.060000", "102034.063000", "102034.066000", "102034.069000", "102034.072000", "102034.075000"],
      "InstanceNumber": [1, 2, 3, 4, 5, 6, 7, 8, 9, 10, 11, 12, 13, 14, 15, 16, 17, 18, 19, 20, 21, 22, 23, 24, 25, 26, 27, 28, 29, 30, 31, 32, 33, 34, 35, 36, 37, 38, 39, 40, 41, 42, 43, 44, 45, 46, 47, 48, 49, 50, 51, 52, 53, 54, 55, 56, 57, 58, 59, 60, 61, 62, 63, 64, 65, 66, 67, 68, 69, 70, 71, 72, 73, 74, 75, 76, 77, 78, 79, 80, 81, 82, 83, 84, 85, 86, 87, 88, 89, 90, 91, 92, 93, 94, 95, 96, 97, 98, 99, 100, 101, 102, 103, 104, 105, 106, 107, 108, 109, 110, 111, 112, 113, 114, 115, 116, 117, 118, 119, 120, 121, 122, 123, 124, 125, 126, 127, 128, 129, 130, 131, 132, 133, 134, 135, 136, 137, 138, 139, 140, 141, 142, 143, 144, 145, 146, 147, 148, 149, 150, 151, 152, 153, 154, 155, 156, 157, 158, 159, 160, 161, 162, 163, 164, 165, 166, 167, 168, 169, 170, 171, 172, 173, 174, 175, 176, 177, 178, 179, 180, 181, 182, 183, 184, 185, 186, 187, 188, 189, 190, 191, 192, 193, 194, 195, 196, 197, 198, 199, 200, 201, 202, 203, 204, 205, 206, 207, 208, 209, 210, 211, 212, 213, 214, 215, 216, 217, 218, 219, 220, 221, 222, 223, 224, 225, 226, 227, 228, 229, 230, 231, 232, 233, 234, 235, 236, 237, 238, 239, 240, 241, 242, 243, 244, 245, 246, 247, 248, 249, 250, 251, 252, 253, 254, 255, 256, 257, 258, 259, 260, 261, 262, 263, 264],
      "LargestImagePixelValue": [36147, 35412, 35651, 35142, 35493, 35206, 34892, 35232, 34638, 35032, 34855, 34681, 35269, 34422, 34577, 34523, 34242, 34547, 34413, 34175, 34842, 34451, 34834, 34383, 34756, 35007, 34549, 34856, 34538, 34728, 35367, 34493, 35034, 34893, 34655, 35424, 34922, 34847, 35427, 34330, 35413, 35097, 34801, 35393, 34450, 35037, 34698, 34258, 35141, 33988, 34760, 35183, 34870, 35232, 35174, 34401, 35063, 34560, 35058, 34480, 34308, 34696, 34766, 34628, 34466, 34683, 34619, 34705, 35082, 34240, 34507, 34563, 34150, 34719, 34312, 34640, 34684, 34517, 34593, 35051, 34781, 35285, 34734, 34973, 35117, 34696, 34999, 34743, 34239, 34987, 34388, 34874, 35134, 34369, 34848, 34775, 34389, 35028, 34531, 34539, 34686, 34431, 35007, 34451, 34637, 35018, 34571, 34770, 34444, 34512, 35647, 34832, 34673, 35412, 34625, 35120, 34844, 34894, 34746, 34849, 34805, 34404, 34557, 35094, 35258, 34544, 34457, 34079, 35364, 34543, 34881, 34789, 35092, 35192, 34875, 35305, 34714, 34526, 35136, 34634, 34811, 34775, 34325, 34886, 34759, 34285, 34657, 34278, 34840, 34620, 34335, 35502, 34928, 34766, 35293, 34869, 35033, 34922, 34368, 34809, 35055, 34738, 35696, 34630, 34986, 35114, 34790, 35151, 34821, 34532, 34819, 34804, 34517, 34462, 34595, 34899, 34607, 35300, 35413, 35056, 35520, 34997, 34769, 34931, 34344, 35128, 34650, 34394, 35336, 34452, 34538, 34921, 34401, 34976, 34471, 34394, 35326, 34760, 35233, 34663, 34677, 34940, 34928, 34747, 35082, 35276, 34988, 34932, 34919, 34609, 34584, 34605, 34530, 35058, 34615, 34647, 34560, 34740, 34681, 34618, 34735, 35229, 34320, 34753, 34476, 34947, 35106, 34828, 35125, 34874, 34606, 34602, 35166, 34850, 34932, 35107, 34871, 34849, 34363, 34596, 34949, 34646, 35077, 34584, 35166, 34640, 34766, 34933, 34613, 35178, 35204, 34877, 34954, 34491, 34614, 34617, 34747, 34863, 34729, 35740, 35204, 35088, 35012, 34725],
      "WindowCenter": [9514.0, 9496.0, 9494.0, 9485.0, 9483.0, 9475.0, 9468.0, 9468.0, 9461.0, 9462.0, 9468.0, 9462.0, 9467.0, 9453.0, 9453.0, 9454.0, 9453.0, 9462.0, 9461.0, 9457.0, 9475.0, 9463.0, 9471.0, 9466.0, 9477.0, 9480.0, 9473.0, 9472.0, 9472.0, 9478.0, 9484.0, 9479.0, 9480.0, 9473.0, 9466.0, 9483.0, 9471.0, 9477.0, 9493.0, 9485.0, 9510.0, 9504.0, 9495.0, 9494.0, 9473.0, 9478.0, 9471.0, 9467.0, 9486.0, 9469.0, 9488.0, 9492.0, 9480.0, 9486.0, 9479.0, 9473.0, 9484.0, 9465.0, 9476.0, 9463.0, 9459.0, 9465.0, 9463.0, 9465.0, 9466.0, 9478.0, 9480.0, 9480.0, 9484.0, 9458.0, 9463.0, 9462.0, 9457.0, 9463.0, 9456.0, 9463.0, 9464.0, 9463.0, 9472.0, 9483.0, 9472.0, 9478.0, 9470.0, 9470.0, 9475.0, 9462.0, 9467.0, 9461.0, 9454.0, 9468.0, 9457.0, 9475.0, 9484.0, 9473.0, 9480.0, 9478.0, 9466.0, 9477.0, 9463.0, 9472.0, 9478.0, 9485.0, 9488.0, 9474.0, 9472.0, 9471.0, 9463.0, 9471.0, 9473.0, 9488.0, 9499.0, 9495.0, 9490.0, 9499.0, 9481.0, 9487.0, 9481.0, 9481.0, 9480.0, 9471.0, 9471.0, 9465.0, 9471.0, 9477.0, 9469.0, 9462.0, 9455.0, 9450.0, 9475.0, 9471.0, 9478.0, 9472.0, 9471.0, 9470.0, 9469.0, 9477.0, 9466.0, 9467.0, 9477.0, 9465.0, 9470.0, 9464.0, 9458.0, 9470.0, 9471.0, 9466.0, 9473.0, 9467.0, 9479.0, 9475.0, 9471.0, 9493.0, 9482.0, 9481.0, 9479.0, 9472.0, 9478.0, 9480.0, 9477.0, 9489.0, 9495.0, 9488.0, 9498.0, 9483.0, 9495.0, 9496.0, 9490.0, 9487.0, 9480.0, 9466.0, 9471.0, 9471.0, 9468.0, 9474.0, 9475.0, 9482.0, 9483.0, 9495.0, 9495.0, 9490.0, 9494.0, 9482.0, 9481.0, 9474.0, 9468.0, 9479.0, 9483.0, 9484.0, 9490.0, 9484.0, 9475.0, 9475.0, 9468.0, 9473.0, 9474.0, 9475.0, 9488.0, 9489.0, 9490.0, 9479.0, 9484.0, 9484.0, 9489.0, 9490.0, 9496.0, 9490.0, 9488.0, 9474.0, 9472.0, 9463.0, 9467.0, 9473.0, 9476.0, 9488.0, 9474.0, 9474.0, 9475.0, 9480.0, 9474.0, 9481.0, 9481.0, 9482.0, 9470.0, 9475.0, 9469.0, 9466.0, 9471.0, 9466.0, 9471.0, 9466.0, 9465.0, 9466.0, 9472.0, 9473.0, 9475.0, 9487.0, 9482.0, 9486.0, 9472.0, 9477.0, 9475.0, 9468.0, 9474.0, 9468.0, 9482.0, 9476.0, 9483.0, 9491.0, 9484.0, 9483.0, 9479.0, 9472.0, 9472.0, 9459.0, 9467.0, 9472.0, 9480.0, 9488.0, 9481.0, 9486.0, 9472.0, 9470.0, 9472.0, 9470.0],
      "WindowWidth": [20333.0, 20286.0, 20276.0, 20254.0, 20245.0, 20225.0, 20208.0, 20208.0, 20195.0, 20200.0, 20212.0, 20201.0, 20208.0, 20175.0, 20175.0, 20177.0, 20178.0, 20199.0, 20197.0, 20192.0, 20228.0, 20207.0, 20223.0, 20217.0, 20237.0, 20246.0, 20231.0, 20228.0, 20227.0, 20237.0, 20250.0, 20241.0, 20245.0, 20228.0, 20213.0, 20243.0, 20219.0, 20234.0, 20269.0, 20261.0, 20308.0, 20294.0, 20275.0, 20269.0, 20226.0, 20234.0, 20221.0, 20217.0, 20255.0, 20226.0, 20263.0, 20267.0, 20247.0, 20252.0, 20238.0, 20225.0, 20247.0, 20210.0, 20232.0, 20207.0, 20202.0, 20213.0, 20206.0, 20211.0, 20214.0, 20238.0, 20243.0, 20243.0, 20244.0, 20192.0, 20198.0, 20196.0, 20190.0, 20202.0, 20191.0, 20206.0, 20208.0, 20205.0, 20225.0, 20246.0, 20228.0, 20237.0, 20219.0, 20218.0, 20226.0, 20200.0, 20206.0, 20194.0, 20182.0, 20212.0, 20191.0, 20228.0, 20249.0, 20230.0, 20242.0, 20237.0, 20212.0, 20230.0, 20203.0, 20224.0, 20238.0, 20253.0, 20261.0, 20231.0, 20225.0, 20222.0, 20204.0, 20223.0, 20230.0, 20261.0, 20284.0, 20276.0, 20268.0, 20280.0, 20245.0, 20257.0, 20244.0, 20246.0, 20241.0, 20221.0, 20222.0, 20209.0, 20223.0, 20229.0, 20211.0, 20196.0, 20181.0, 20178.0, 20225.0, 20222.0, 20238.0, 20225.0, 20222.0, 20216.0, 20215.0, 20230.0, 20214.0, 20216.0, 20232.0, 20209.0, 20217.0, 20204.0, 20193.0, 20216.0, 20221.0, 20214.0, 20226.0, 20215.0, 20240.0, 20233.0, 20229.0, 20267.0, 20247.0, 20244.0, 20238.0, 20224.0, 20236.0, 20240.0, 20240.0, 20264.0, 20274.0, 20260.0, 20276.0, 20252.0, 20276.0, 20279.0, 20266.0, 20257.0, 20237.0, 20210.0, 20218.0, 20218.0, 20216.0, 20228.0, 20232.0, 20246.0, 20251.0, 20276.0, 20275.0, 20265.0, 20272.0, 20246.0, 20244.0, 20229.0, 20215.0, 20236.0, 20245.0, 20252.0, 20264.0, 20251.0, 20232.0, 20231.0, 20216.0, 20226.0, 20228.0, 20234.0, 20260.0, 20264.0, 20267.0, 20248.0, 20256.0, 20254.0, 20264.0, 20267.0, 20277.0, 20266.0, 20257.0, 20225.0, 20216.0, 20196.0, 20209.0, 20225.0, 20235.0, 20256.0, 20230.0, 20228.0, 20228.0, 20234.0, 20225.0, 20242.0, 20242.0, 20246.0, 20224.0, 20233.0, 20219.0, 20209.0, 20215.0, 20206.0, 20215.0, 20208.0, 20206.0, 20210.0, 20222.0, 20224.0, 20233.0, 20256.0, 20247.0, 20257.0, 20227.0, 20235.0, 20228.0, 20215.0, 20227.0, 20218.0, 20246.0, 20236.0, 20253.0, 20268.0, 20252.0, 20250.0, 20235.0, 20220.0, 20217.0, 20190.0, 20208.0, 20215.0, 20234.0, 20253.0, 20238.0, 20245.0, 20215.0, 20212.0, 20216.0, 20212.0]
    },
    "slices": {}
  },
  "NumberOfVolumes": 264
}