{
  "AcquisitionMatrixPE": 104,
  "AcquisitionNumber": 1,
  "AcquisitionTime": "11:18:18.302500",
  "BandwidthPerPixelPhaseEncode": 16.578,
  "BaseResolution": 104,
  "BodyPartExamined": "BRAIN",
  "ConsistencyInfo": "N4_VE11C_LATEST_20160120",
  "ConversionSoftware": "dcm2niix",
  "ConversionSoftwareVersion": "v1.0.20190410  GCC6.3.0",
  "DerivedVendorReportedEchoSpacing": 0.000580009,
  "DeviceSerialNumber": "166018",
  "DwellTime": 2.1e-06,
  "EchoTime": 0.037,
  "EchoTrainLength": 104,
  "EffectiveEchoSpacing": 0.000580009,
  "FlipAngle": 68,
  "ImageComments": "Unaliased_MB6_PE3_LB",
  "ImageOrientationPatientDICOM": [0.999806, -0.017416, -0.00914958, 0.0150081, 0.975913, -0.217641],
  "ImageType": [
    "ORIGINAL",
    "PRIMARY",
    "M",
    "MB",
    "ND",
    "MOSAIC"
],
  "ImagingFrequency": 123.191,
  "InPlanePhaseEncodingDirectionDICOM": "COL",
  "InstitutionAddress": "Washington_Place_6_NYC_NYC_US_10003",
  "InstitutionName": "NYU_Center_for_Brain_Imaging",
  "InstitutionalDepartmentName": "Department",
  "MRAcquisitionType": "2D",
  "MagneticFieldStrength": 3,
  "Manufacturer": "Siemens",
  "ManufacturersModelName": "Prisma",
  "Modality": "MR",
  "MultibandAccelerationFactor": 6,
  "PartialFourier": 1,
  "PatientPosition": "HFS",
  "PercentPhaseFOV": 100,
  "PhaseEncodingDirection": "j",
  "PhaseEncodingSteps": 104,
  "PhaseResolution": 1,
  "PixelBandwidth": 2290,
  "ProcedureStepDescription": "Investigators_Winawer",
  "ProtocolName": "task-sfprescaled_cmrr_mbepi_s6_2mm_66sl_PA_TR1.0",
  "PulseSequenceDetails": "%CustomerSeq%_cmrr_mbep2d_bold",
  "ReceiveCoilActiveElements": "HC1-7",
  "ReceiveCoilName": "HeadNeck_64",
  "ReconMatrixPE": 104,
  "RepetitionTime": 1,
  "SAR": 0.0710762,
  "ScanOptions": "FS",
  "ScanningSequence": "EP",
  "SequenceName": "epfid2d1_104",
  "SequenceVariant": "SK_SS",
  "SeriesDescription": "task-sfprescaled_cmrr_mbepi_s6_2mm_66sl_PA_TR1.0",
  "SeriesNumber": 8,
  "ShimSetting": [279, -12606, -8449, 336, -4, -238, -109, -14],
  "SliceThickness": 2,
  "SliceTiming": [0, 0.535, 0.09, 0.6225, 0.1775, 0.7125, 0.2675, 0.8025, 0.3575, 0.89, 0.445, 0, 0.535, 0.09, 0.6225, 0.1775, 0.7125, 0.2675, 0.8025, 0.3575, 0.89, 0.445, 0, 0.535, 0.09, 0.6225, 0.1775, 0.7125, 0.2675, 0.8025, 0.3575, 0.89, 0.445, 0, 0.535, 0.09, 0.6225, 0.1775, 0.7125, 0.2675, 0.8025, 0.3575, 0.89, 0.445, 0, 0.535, 0.09, 0.6225, 0.1775, 0.7125, 0.2675, 0.8025, 0.3575, 0.89, 0.445, 0, 0.535, 0.09, 0.6225, 0.1775, 0.7125, 0.2675, 0.8025, 0.3575, 0.89, 0.445],
  "SoftwareVersions": "syngo_MR_E11",
  "SpacingBetweenSlices": 2,
  "StationName": "AWP166018",
  "TaskName": "sfprescaled",
  "TotalReadoutTime": 0.0597409,
  "TxRefAmp": 245.7,
  "WipMemBlock": "72863f80-38b2-4e52-a741-2bdc88044504||Sequence: R016 ve11c/master r/8780670; Nov 27 2017 15:05:12 by eja",
  "dcmmeta_affine": [
    [-1.9996129274368286, 0.030016222968697548, -0.025439279153943062, 106.42506408691406],
    [0.03483204543590546, 1.9518269300460815, -0.4349231719970703, -69.68172454833984],
    [-0.01829916052520275, 0.43528205156326294, 1.9519720077514648, -66.03307342529297],
    [0.0, 0.0, 0.0, 1.0]
],
  "dcmmeta_reorient_transform": [
    [0.0, -1.0, 0.0, 103.0],
    [1.0, 0.0, 0.0, 0.0],
    [0.0, 0.0, 1.0, 0.0],
    [0.0, 0.0, 0.0, 1.0]
],
  "dcmmeta_shape": [104, 104, 66, 264],
  "dcmmeta_slice_dim": 2,
  "dcmmeta_version": 0.6,
  "global": {
    "const": {
      "AccessionNumber": "k5rbL6p1",
      "AcquisitionMatrix": [104, 0, 0, 104],
      "AngioFlag": "N",
      "BitsAllocated": 16,
      "BitsStored": 16,
      "BodyPartExamined": "BRAIN",
      "Columns": 936,
      "EchoNumbers": 1,
      "EchoTime": 37.0,
      "EchoTrainLength": 104,
      "FlipAngle": 68.0,
      "HighBit": 15,
      "ImageOrientationPatient": [0.99980646495223, -0.0174160221162, -0.0091495799559, 0.0150081115578, 0.97591349025416, -0.2176410258371],
      "ImagePositionPatient": [-953.84246633373, -928.82634822519, 167.4907630342],
      "ImageType": [
        "ORIGINAL",
        "PRIMARY",
        "M",
        "MB",
        "ND",
        "MOSAIC"
],
      "ImagedNucleus": "1H",
      "ImagingFrequency": 123.190714,
      "InPlanePhaseEncodingDirection": "COL",
      "MRAcquisitionType": "2D",
      "MagneticFieldStrength": 3.0,
      "Manufacturer": "SIEMENS",
      "ManufacturerModelName": "Prisma",
      "Modality": "MR",
      "NumberOfAverages": 1.0,
      "NumberOfPhaseEncodingSteps": 104,
      "PercentPhaseFieldOfView": 100.0,
      "PercentSampling": 100.0,
      "PerformedProcedureStepStartTime": "111304.219000",
      "PhotometricInterpretation": "MONOCHROME2",
      "PixelBandwidth": 2290.0,
      "PixelRepresentation": 0,
      "PixelSpacing": [2.0, 2.0],
      "ProtocolName": "task-sfprescaled_cmrr_mbepi_s6_2mm_66sl_PA_TR1.0",
      "RepetitionTime": 1000.0,
      "Rows": 936,
      "SAR": 0.07107616936717,
      "SamplesPerPixel": 1,
      "ScanOptions": "FS",
      "ScanningSequence": "EP",
      "SequenceName": "epfid2d1_104",
      "SequenceVariant": [
        "SK",
        "SS"
],
      "SeriesDescription": "task-sfprescaled_cmrr_mbepi_s6_2mm_66sl_PA_TR1.0",
      "SeriesNumber": 8,
      "SeriesTime": "111925.581000",
      "SliceLocation": -50.647944165855,
      "SliceThickness": 2.0,
      "SmallestImagePixelValue": 0,
      "SoftwareVersions": "syngo MR E11",
      "SpacingBetweenSlices": 1.9999999674386,
      "SpecificCharacterSet": "ISO_IR 100",
      "StudyID": "1",
      "StudyTime": "111304.154000",
      "TransmitCoilName": "Body",
      "VariableFlipAngleFlag": "N",
      "WindowCenterWidthExplanation": "Algo1",
      "dBdt": 0.0},
    "slices": {}
  },
  "time": {
    "samples": {
      "AcquisitionNumber": [1, 2, 3, 4, 5, 6, 7, 8, 9, 10, 11, 12, 13, 14, 15, 16, 17, 18, 19, 20, 21, 22, 23, 24, 25, 26, 27, 28, 29, 30, 31, 32, 33, 34, 35, 36, 37, 38, 39, 40, 41, 42, 43, 44, 45, 46, 47, 48, 49, 50, 51, 52, 53, 54, 55, 56, 57, 58, 59, 60, 61, 62, 63, 64, 65, 66, 67, 68, 69, 70, 71, 72, 73, 74, 75, 76, 77, 78, 79, 80, 81, 82, 83, 84, 85, 86, 87, 88, 89, 90, 91, 92, 93, 94, 95, 96, 97, 98, 99, 100, 101, 102, 103, 104, 105, 106, 107, 108, 109, 110, 111, 112, 113, 114, 115, 116, 117, 118, 119, 120, 121, 122, 123, 124, 125, 126, 127, 128, 129, 130, 131, 132, 133, 134, 135, 136, 137, 138, 139, 140, 141, 142, 143, 144, 145, 146, 147, 148, 149, 150, 151, 152, 153, 154, 155, 156, 157, 158, 159, 160, 161, 162, 163, 164, 165, 166, 167, 168, 169, 170, 171, 172, 173, 174, 175, 176, 177, 178, 179, 180, 181, 182, 183, 184, 185, 186, 187, 188, 189, 190, 191, 192, 193, 194, 195, 196, 197, 198, 199, 200, 201, 202, 203, 204, 205, 206, 207, 208, 209, 210, 211, 212, 213, 214, 215, 216, 217, 218, 219, 220, 221, 222, 223, 224, 225, 226, 227, 228, 229, 230, 231, 232, 233, 234, 235, 236, 237, 238, 239, 240, 241, 242, 243, 244, 245, 246, 247, 248, 249, 250, 251, 252, 253, 254, 255, 256, 257, 258, 259, 260, 261, 262, 263, 264],
      "AcquisitionTime": ["111818.302500", "111819.302500", "111820.302500", "111821.302500", "111822.302500", "111823.302500", "111824.302500", "111825.302500", "111826.302500", "111827.302500", "111828.302500", "111829.302500", "111830.302500", "111831.302500", "111832.302500", "111833.302500", "111834.302500", "111835.302500", "111836.302500", "111837.302500", "111838.302500", "111839.302500", "111840.302500", "111841.302500", "111842.302500", "111843.302500", "111844.302500", "111845.302500", "111846.302500", "111847.302500", "111848.302500", "111849.302500", "111850.302500", "111851.302500", "111852.302500", "111853.302500", "111854.302500", "111855.302500", "111856.302500", "111857.302500", "111858.302500", "111859.302500", "111900.302500", "111901.302500", "111902.302500", "111903.302500", "111904.302500", "111905.302500", "111906.302500", "111907.302500", "111908.302500", "111909.302500", "111910.302500", "111911.302500", "111912.302500", "111913.302500", "111914.302500", "111915.302500", "111916.302500", "111917.302500", "111918.302500", "111919.302500", "111920.302500", "111921.302500", "111922.302500", "111923.302500", "111924.302500", "111925.302500", "111926.302500", "111927.302500", "111928.302500", "111929.302500", "111930.302500", "111931.302500", "111932.302500", "111933.302500", "111934.302500", "111935.302500", "111936.302500", "111937.302500", "111938.302500", "111939.302500", "111940.302500", "111941.302500", "111942.302500", "111943.302500", "111944.302500", "111945.302500", "111946.302500", "111947.302500", "111948.302500", "111949.302500", "111950.302500", "111951.302500", "111952.302500", "111953.302500", "111954.302500", "111955.302500", "111956.302500", "111957.302500", "111958.302500", "111959.302500", "112000.302500", "112001.302500", "112002.302500", "112003.302500", "112004.302500", "112005.302500", "112006.302500", "112007.302500", "112008.302500", "112009.302500", "112010.302500", "112011.302500", "112012.302500", "112013.302500", "112014.302500", "112015.302500", "112016.302500", "112017.302500", "112018.302500", "112019.302500", "112020.302500", "112021.302500", "112022.302500", "112023.302500", "112024.302500", "112025.302500", "112026.302500", "112027.302500", "112028.302500", "112029.302500", "112030.302500", "112031.302500", "112032.302500", "112033.302500", "112034.302500", "112035.302500", "112036.302500", "112037.302500", "112038.302500", "112039.302500", "112040.302500", "112041.302500", "112042.302500", "112043.302500", "112044.302500", "112045.302500", "112046.302500", "112047.302500", "112048.302500", "112049.302500", "112050.302500", "112051.302500", "112052.302500", "112053.302500", "112054.302500", "112055.302500", "112056.302500", "112057.302500", "112058.302500", "112059.302500", "112100.302500", "112101.302500", "112102.302500", "112103.302500", "112104.302500", "112105.302500", "112106.302500", "112107.302500", "112108.302500", "112109.302500", "112110.302500", "112111.302500", "112112.302500", "112113.302500", "112114.302500", "112115.302500", "112116.302500", "112117.302500", "112118.302500", "112119.302500", "112120.302500", "112121.302500", "112122.302500", "112123.302500", "112124.302500", "112125.302500", "112126.302500", "112127.302500", "112128.302500", "112129.302500", "112130.302500", "112131.302500", "112132.302500", "112133.302500", "112134.302500", "112135.302500", "112136.302500", "112137.302500", "112138.302500", "112139.302500", "112140.302500", "112141.302500", "112142.302500", "112143.302500", "112144.302500", "112145.302500", "112146.302500", "112147.302500", "112148.302500", "112149.302500", "112150.302500", "112151.302500", "112152.302500", "112153.302500", "112154.302500", "112155.302500", "112156.302500", "112157.302500", "112158.302500", "112159.302500", "112200.302500", "112201.302500", "112202.302500", "112203.302500", "112204.302500", "112205.302500", "112206.302500", "112207.302500", "112208.302500", "112209.302500", "112210.302500", "112211.302500", "112212.302500", "112213.302500", "112214.302500", "112215.302500", "112216.302500", "112217.302500", "112218.302500", "112219.302500", "112220.302500", "112221.302500", "112222.302500", "112223.302500", "112224.302500", "112225.302500", "112226.302500", "112227.302500", "112228.302500", "112229.302500", "112230.302500", "112231.302500", "112232.302500", "112233.302500", "112234.302500", "112235.302500", "112236.302500", "112237.302500", "112238.302500", "112239.302500", "112240.302500", "112241.302500"],
      "ContentTime": ["111925.583000", "111925.587000", "111925.590000", "111925.598000", "111925.600000", "111925.603000", "111925.606000", "111925.609000", "111925.612000", "111925.615000", "111925.618000", "111925.621000", "111925.631000", "111925.634000", "111925.642000", "111925.645000", "111925.648000", "111925.651000", "111925.654000", "111925.657000", "111925.659000", "111925.662000", "111925.665000", "111925.668000", "111925.671000", "111925.674000", "111925.677000", "111945.552000", "111945.555000", "111945.558000", "111945.561000", "111945.564000", "111945.567000", "111945.574000", "111945.577000", "111945.580000", "111945.583000", "111945.586000", "111945.589000", "111945.592000", "111945.594000", "111945.597000", "111945.600000", "111945.603000", "111945.606000", "111945.609000", "111945.612000", "111945.614000", "111945.617000", "111945.620000", "111945.623000", "111945.626000", "111945.629000", "111945.632000", "111945.634000", "112005.552000", "112005.555000", "112005.558000", "112005.561000", "112005.564000", "112005.566000", "112005.569000", "112005.573000", "112005.575000", "112005.578000", "112005.581000", "112005.584000", "112005.587000", "112005.590000", "112005.593000", "112005.595000", "112005.598000", "112005.601000", "112005.604000", "112005.607000", "112005.610000", "112005.613000", "112005.616000", "112005.618000", "112005.621000", "112005.624000", "112005.627000", "112005.630000", "112005.633000", "112025.551000", "112025.554000", "112025.557000", "112025.560000", "112025.563000", "112025.566000", "112025.568000", "112025.572000", "112025.574000", "112025.577000", "112025.580000", "112025.583000", "112025.586000", "112025.589000", "112025.592000", "112025.595000", "112025.598000", "112025.600000", "112025.603000", "112025.606000", "112025.609000", "112025.612000", "112025.615000", "112025.618000", "112025.620000", "112025.623000", "112025.626000", "112025.629000", "112045.551000", "112045.554000", "112045.557000", "112045.560000", "112045.563000", "112045.565000", "112045.568000", "112045.571000", "112045.574000", "112045.577000", "112045.580000", "112045.583000", "112045.586000", "112045.589000", "112045.592000", "112045.595000", "112045.598000", "112045.600000", "112045.603000", "112045.606000", "112045.609000", "112045.612000", "112045.615000", "112045.618000", "112045.621000", "112045.623000", "112045.626000", "112045.629000", "112105.551000", "112105.554000", "112105.557000", "112105.560000", "112105.563000", "112105.565000", "112105.568000", "112105.571000", "112105.574000", "112105.577000", "112105.590000", "112105.593000", "112105.596000", "112105.599000", "112105.602000", "112105.604000", "112105.607000", "112105.610000", "112105.613000", "112105.616000", "112105.619000", "112105.622000", "112105.625000", "112105.628000", "112105.630000", "112105.633000", "112125.551000", "112125.554000", "112125.557000", "112125.560000", "112125.563000", "112125.566000", "112125.569000", "112125.586000", "112125.588000", "112125.591000", "112125.594000", "112125.597000", "112125.600000", "112125.603000", "112125.606000", "112125.609000", "112125.611000", "112125.614000", "112125.617000", "112125.620000", "112145.551000", "112145.554000", "112145.557000", "112145.560000", "112145.563000", "112145.565000", "112145.568000", "112145.571000", "112145.574000", "112145.577000", "112145.580000", "112145.583000", "112145.586000", "112145.589000", "112145.592000", "112145.595000", "112145.597000", "112145.600000", "112145.603000", "112145.606000", "112205.552000", "112205.555000", "112205.558000", "112205.561000", "112205.564000", "112205.567000", "112205.570000", "112205.573000", "112205.576000", "112205.578000", "112205.581000", "112205.584000", "112205.587000", "112205.590000", "112205.593000", "112205.596000", "112205.599000", "112205.602000", "112205.604000", "112205.607000", "112225.552000", "112225.555000", "112225.558000", "112225.561000", "112225.564000", "112225.567000", "112225.570000", "112225.573000", "112225.575000", "112225.578000", "112225.581000", "112225.584000", "112225.587000", "112225.590000", "112225.593000", "112225.596000", "112225.599000", "112225.601000", "112225.604000", "112225.607000", "112242.712000", "112242.715000", "112242.718000", "112242.721000", "112242.724000", "112242.727000", "112242.730000", "112242.733000", "112242.744000", "112242.747000", "112242.750000", "112242.753000", "112242.756000", "112242.759000", "112242.762000", "112242.765000", "112242.768000", "112242.770000"],
      "InstanceCreationTime": ["111925.583000", "111925.587000", "111925.590000", "111925.598000", "111925.600000", "111925.603000", "111925.606000", "111925.609000", "111925.612000", "111925.615000", "111925.618000", "111925.621000", "111925.631000", "111925.634000", "111925.642000", "111925.645000", "111925.648000", "111925.651000", "111925.654000", "111925.657000", "111925.659000", "111925.662000", "111925.665000", "111925.668000", "111925.671000", "111925.674000", "111925.677000", "111945.552000", "111945.555000", "111945.558000", "111945.561000", "111945.564000", "111945.567000", "111945.574000", "111945.577000", "111945.580000", "111945.583000", "111945.586000", "111945.589000", "111945.592000", "111945.594000", "111945.597000", "111945.600000", "111945.603000", "111945.606000", "111945.609000", "111945.612000", "111945.614000", "111945.617000", "111945.620000", "111945.623000", "111945.626000", "111945.629000", "111945.632000", "111945.634000", "112005.552000", "112005.555000", "112005.558000", "112005.561000", "112005.564000", "112005.566000", "112005.569000", "112005.573000", "112005.575000", "112005.578000", "112005.581000", "112005.584000", "112005.587000", "112005.590000", "112005.593000", "112005.595000", "112005.598000", "112005.601000", "112005.604000", "112005.607000", "112005.610000", "112005.613000", "112005.616000", "112005.618000", "112005.621000", "112005.624000", "112005.627000", "112005.630000", "112005.633000", "112025.551000", "112025.554000", "112025.557000", "112025.560000", "112025.563000", "112025.566000", "112025.568000", "112025.572000", "112025.574000", "112025.577000", "112025.580000", "112025.583000", "112025.586000", "112025.589000", "112025.592000", "112025.595000", "112025.598000", "112025.600000", "112025.603000", "112025.606000", "112025.609000", "112025.612000", "112025.615000", "112025.618000", "112025.620000", "112025.623000", "112025.626000", "112025.629000", "112045.551000", "112045.554000", "112045.557000", "112045.560000", "112045.563000", "112045.565000", "112045.568000", "112045.571000", "112045.574000", "112045.577000", "112045.580000", "112045.583000", "112045.586000", "112045.589000", "112045.592000", "112045.595000", "112045.598000", "112045.600000", "112045.603000", "112045.606000", "112045.609000", "112045.612000", "112045.615000", "112045.618000", "112045.621000", "112045.623000", "112045.626000", "112045.629000", "112105.551000", "112105.554000", "112105.557000", "112105.560000", "112105.563000", "112105.565000", "112105.568000", "112105.571000", "112105.574000", "112105.577000", "112105.590000", "112105.593000", "112105.596000", "112105.599000", "112105.602000", "112105.604000", "112105.607000", "112105.610000", "112105.613000", "112105.616000", "112105.619000", "112105.622000", "112105.625000", "112105.628000", "112105.630000", "112105.633000", "112125.551000", "112125.554000", "112125.557000", "112125.560000", "112125.563000", "112125.566000", "112125.569000", "112125.586000", "112125.588000", "112125.591000", "112125.594000", "112125.597000", "112125.600000", "112125.603000", "112125.606000", "112125.609000", "112125.611000", "112125.614000", "112125.617000", "112125.620000", "112145.551000", "112145.554000", "112145.557000", "112145.560000", "112145.563000", "112145.565000", "112145.568000", "112145.571000", "112145.574000", "112145.577000", "112145.580000", "112145.583000", "112145.586000", "112145.589000", "112145.592000", "112145.595000", "112145.597000", "112145.600000", "112145.603000", "112145.606000", "112205.552000", "112205.555000", "112205.558000", "112205.561000", "112205.564000", "112205.567000", "112205.570000", "112205.573000", "112205.576000", "112205.578000", "112205.581000", "112205.584000", "112205.587000", "112205.590000", "112205.593000", "112205.596000", "112205.599000", "112205.602000", "112205.604000", "112205.607000", "112225.552000", "112225.555000", "112225.558000", "112225.561000", "112225.564000", "112225.567000", "112225.570000", "112225.573000", "112225.575000", "112225.578000", "112225.581000", "112225.584000", "112225.587000", "112225.590000", "112225.593000", "112225.596000", "112225.599000", "112225.601000", "112225.604000", "112225.607000", "112242.712000", "112242.715000", "112242.718000", "112242.721000", "112242.724000", "112242.727000", "112242.730000", "112242.733000", "112242.744000", "112242.747000", "112242.750000", "112242.753000", "112242.756000", "112242.759000", "112242.762000", "112242.765000", "112242.768000", "112242.770000"],
      "InstanceNumber": [1, 2, 3, 4, 5, 6, 7, 8, 9, 10, 11, 12, 13, 14, 15, 16, 17, 18, 19, 20, 21, 22, 23, 24, 25, 26, 27, 28, 29, 30, 31, 32, 33, 34, 35, 36, 37, 38, 39, 40, 41, 42, 43, 44, 45, 46, 47, 48, 49, 50, 51, 52, 53, 54, 55, 56, 57, 58, 59, 60, 61, 62, 63, 64, 65, 66, 67, 68, 69, 70, 71, 72, 73, 74, 75, 76, 77, 78, 79, 80, 81, 82, 83, 84, 85, 86, 87, 88, 89, 90, 91, 92, 93, 94, 95, 96, 97, 98, 99, 100, 101, 102, 103, 104, 105, 106, 107, 108, 109, 110, 111, 112, 113, 114, 115, 116, 117, 118, 119, 120, 121, 122, 123, 124, 125, 126, 127, 128, 129, 130, 131, 132, 133, 134, 135, 136, 137, 138, 139, 140, 141, 142, 143, 144, 145, 146, 147, 148, 149, 150, 151, 152, 153, 154, 155, 156, 157, 158, 159, 160, 161, 162, 163, 164, 165, 166, 167, 168, 169, 170, 171, 172, 173, 174, 175, 176, 177, 178, 179, 180, 181, 182, 183, 184, 185, 186, 187, 188, 189, 190, 191, 192, 193, 194, 195, 196, 197, 198, 199, 200, 201, 202, 203, 204, 205, 206, 207, 208, 209, 210, 211, 212, 213, 214, 215, 216, 217, 218, 219, 220, 221, 222, 223, 224, 225, 226, 227, 228, 229, 230, 231, 232, 233, 234, 235, 236, 237, 238, 239, 240, 241, 242, 243, 244, 245, 246, 247, 248, 249, 250, 251, 252, 253, 254, 255, 256, 257, 258, 259, 260, 261, 262, 263, 264],
      "LargestImagePixelValue": [35079, 33837, 32943, 31964, 32104, 32581, 33384, 32825, 32304, 32861, 32435, 31903, 32939, 32699, 33039, 32763, 33316, 33522, 33003, 32990, 33274, 33890, 33454, 32993, 33115, 33431, 33103, 32852, 33452, 33005, 32735, 32986, 33364, 33195, 32834, 33322, 32861, 32758, 32955, 33121, 31954, 33235, 33438, 33129, 32542, 32905, 32966, 32861, 32414, 33265, 33091, 32771, 32594, 32894, 33353, 32987, 32972, 33456, 33487, 32856, 32468, 33253, 33225, 33314, 33609, 33513, 33838, 32917, 33015, 33442, 33851, 33168, 33234, 33452, 33480, 32709, 33544, 32941, 33026, 32943, 33291, 33237, 33376, 32970, 33444, 33825, 33210, 33573, 33321, 33498, 33041, 33600, 33358, 33029, 33412, 33754, 34142, 33592, 33644, 33816, 33666, 33036, 33839, 33627, 33643, 33012, 33430, 34341, 34084, 33513, 33762, 34055, 33857, 33478, 33842, 33625, 33264, 32566, 33736, 33229, 32998, 33431, 33834, 33681, 33093, 33297, 33592, 33799, 32885, 34209, 34187, 33154, 33586, 34331, 33696, 33230, 33772, 34090, 34445, 33717, 34025, 34258, 34037, 33971, 33618, 34296, 33991, 33708, 33821, 33910, 33818, 33569, 34199, 33755, 33396, 33783, 34068, 33987, 33839, 33547, 34157, 33799, 33637, 33831, 34179, 33542, 33927, 34082, 34125, 33907, 33915, 34227, 34401, 33941, 34284, 34130, 34308, 34223, 34497, 34138, 33961, 33938, 34365, 34357, 34575, 33973, 34610, 34351, 34171, 34540, 34414, 34367, 34164, 34457, 34507, 34618, 34332, 34069, 34290, 34702, 34537, 34307, 34735, 34220, 34921, 34592, 34542, 34830, 34616, 34365, 34486, 34389, 34362, 34787, 34760, 34263, 34274, 34709, 34549, 34397, 34759, 34566, 35288, 35179, 34505, 34904, 34752, 34577, 34811, 34513, 34217, 34412, 34747, 34092, 34612, 34348, 34466, 34338, 34332, 34028, 34185, 34591, 34450, 34209, 34358, 34848, 34615, 34344, 34121, 34552, 34539, 34358, 34556, 34027, 34438, 33910, 34304, 34460, 34272, 34451, 34408, 34658, 34096, 34183],
      "WindowCenter": [9572.0, 9538.0, 9516.0, 9495.0, 9496.0, 9515.0, 9520.0, 9506.0, 9491.0, 9486.0, 9472.0, 9465.0, 9477.0, 9478.0, 9485.0, 9488.0, 9494.0, 9498.0, 9485.0, 9486.0, 9500.0, 9515.0, 9516.0, 9512.0, 9512.0, 9520.0, 9514.0, 9516.0, 9528.0, 9525.0, 9534.0, 9542.0, 9540.0, 9524.0, 9515.0, 9513.0, 9507.0, 9508.0, 9516.0, 9520.0, 9496.0, 9521.0, 9527.0, 9513.0, 9500.0, 9506.0, 9505.0, 9499.0, 9494.0, 9518.0, 9506.0, 9499.0, 9498.0, 9503.0, 9503.0, 9496.0, 9496.0, 9506.0, 9500.0, 9495.0, 9491.0, 9511.0, 9512.0, 9515.0, 9529.0, 9529.0, 9528.0, 9515.0, 9516.0, 9529.0, 9529.0, 9523.0, 9523.0, 9522.0, 9521.0, 9509.0, 9520.0, 9515.0, 9517.0, 9517.0, 9522.0, 9515.0, 9507.0, 9507.0, 9521.0, 9534.0, 9539.0, 9549.0, 9543.0, 9540.0, 9519.0, 9521.0, 9512.0, 9499.0, 9513.0, 9519.0, 9525.0, 9519.0, 9513.0, 9527.0, 9522.0, 9524.0, 9536.0, 9531.0, 9529.0, 9510.0, 9514.0, 9523.0, 9517.0, 9510.0, 9517.0, 9518.0, 9518.0, 9512.0, 9518.0, 9518.0, 9515.0, 9504.0, 9530.0, 9525.0, 9517.0, 9516.0, 9528.0, 9521.0, 9509.0, 9515.0, 9528.0, 9537.0, 9527.0, 9537.0, 9534.0, 9508.0, 9512.0, 9517.0, 9512.0, 9515.0, 9530.0, 9535.0, 9531.0, 9506.0, 9511.0, 9516.0, 9511.0, 9512.0, 9514.0, 9526.0, 9526.0, 9521.0, 9527.0, 9521.0, 9527.0, 9520.0, 9518.0, 9505.0, 9505.0, 9511.0, 9518.0, 9519.0, 9520.0, 9521.0, 9528.0, 9521.0, 9513.0, 9518.0, 9518.0, 9520.0, 9528.0, 9537.0, 9536.0, 9522.0, 9519.0, 9512.0, 9524.0, 9519.0, 9526.0, 9527.0, 9525.0, 9520.0, 9524.0, 9512.0, 9510.0, 9518.0, 9517.0, 9516.0, 9508.0, 9503.0, 9522.0, 9519.0, 9519.0, 9525.0, 9526.0, 9527.0, 9520.0, 9519.0, 9518.0, 9518.0, 9527.0, 9531.0, 9545.0, 9538.0, 9535.0, 9520.0, 9522.0, 9502.0, 9506.0, 9512.0, 9515.0, 9531.0, 9533.0, 9529.0, 9535.0, 9530.0, 9529.0, 9540.0, 9533.0, 9521.0, 9527.0, 9533.0, 9526.0, 9519.0, 9523.0, 9517.0, 9527.0, 9520.0, 9507.0, 9514.0, 9522.0, 9518.0, 9532.0, 9544.0, 9547.0, 9552.0, 9550.0, 9538.0, 9537.0, 9529.0, 9527.0, 9519.0, 9513.0, 9514.0, 9527.0, 9528.0, 9534.0, 9529.0, 9538.0, 9549.0, 9536.0, 9521.0, 9519.0, 9517.0, 9508.0, 9500.0, 9505.0, 9494.0, 9507.0, 9502.0, 9503.0, 9516.0, 9511.0, 9518.0, 9518.0, 9519.0, 9512.0, 9504.0],
      "WindowWidth": [20365.0, 20283.0, 20232.0, 20190.0, 20189.0, 20222.0, 20228.0, 20200.0, 20168.0, 20156.0, 20128.0, 20115.0, 20134.0, 20139.0, 20156.0, 20162.0, 20172.0, 20176.0, 20152.0, 20156.0, 20182.0, 20210.0, 20216.0, 20211.0, 20213.0, 20227.0, 20220.0, 20225.0, 20246.0, 20245.0, 20263.0, 20279.0, 20272.0, 20239.0, 20218.0, 20214.0, 20201.0, 20205.0, 20221.0, 20226.0, 20184.0, 20228.0, 20239.0, 20211.0, 20188.0, 20197.0, 20197.0, 20185.0, 20176.0, 20220.0, 20198.0, 20183.0, 20180.0, 20188.0, 20189.0, 20174.0, 20174.0, 20190.0, 20178.0, 20171.0, 20169.0, 20206.0, 20210.0, 20216.0, 20244.0, 20245.0, 20239.0, 20219.0, 20220.0, 20246.0, 20246.0, 20233.0, 20233.0, 20232.0, 20226.0, 20205.0, 20223.0, 20217.0, 20224.0, 20225.0, 20231.0, 20216.0, 20199.0, 20200.0, 20227.0, 20251.0, 20267.0, 20289.0, 20279.0, 20268.0, 20225.0, 20223.0, 20205.0, 20184.0, 20208.0, 20220.0, 20230.0, 20220.0, 20211.0, 20238.0, 20233.0, 20237.0, 20256.0, 20249.0, 20243.0, 20206.0, 20208.0, 20223.0, 20211.0, 20201.0, 20212.0, 20216.0, 20216.0, 20204.0, 20213.0, 20216.0, 20215.0, 20198.0, 20246.0, 20238.0, 20223.0, 20218.0, 20238.0, 20226.0, 20206.0, 20213.0, 20240.0, 20259.0, 20243.0, 20260.0, 20248.0, 20201.0, 20205.0, 20213.0, 20207.0, 20218.0, 20244.0, 20251.0, 20237.0, 20193.0, 20200.0, 20209.0, 20203.0, 20206.0, 20211.0, 20233.0, 20236.0, 20228.0, 20237.0, 20227.0, 20235.0, 20220.0, 20214.0, 20192.0, 20192.0, 20202.0, 20216.0, 20221.0, 20222.0, 20225.0, 20240.0, 20226.0, 20207.0, 20213.0, 20216.0, 20222.0, 20239.0, 20258.0, 20255.0, 20227.0, 20217.0, 20204.0, 20224.0, 20218.0, 20229.0, 20234.0, 20229.0, 20219.0, 20225.0, 20203.0, 20199.0, 20213.0, 20211.0, 20205.0, 20189.0, 20182.0, 20218.0, 20218.0, 20219.0, 20225.0, 20231.0, 20234.0, 20219.0, 20216.0, 20213.0, 20216.0, 20235.0, 20246.0, 20273.0, 20259.0, 20248.0, 20217.0, 20217.0, 20182.0, 20185.0, 20197.0, 20208.0, 20241.0, 20247.0, 20240.0, 20252.0, 20243.0, 20238.0, 20256.0, 20242.0, 20222.0, 20231.0, 20243.0, 20228.0, 20214.0, 20218.0, 20208.0, 20226.0, 20212.0, 20187.0, 20203.0, 20220.0, 20217.0, 20243.0, 20270.0, 20281.0, 20286.0, 20280.0, 20259.0, 20257.0, 20238.0, 20232.0, 20219.0, 20210.0, 20212.0, 20235.0, 20238.0, 20250.0, 20243.0, 20260.0, 20280.0, 20253.0, 20221.0, 20214.0, 20207.0, 20189.0, 20173.0, 20180.0, 20165.0, 20188.0, 20181.0, 20183.0, 20207.0, 20201.0, 20211.0, 20214.0, 20216.0, 20202.0, 20187.0]
    },
    "slices": {}
  },
  "NumberOfVolumes": 264
}