{
  "AcquisitionMatrixPE": 104,
  "AcquisitionNumber": 1,
  "AcquisitionTime": "11:27:50.435000",
  "BandwidthPerPixelPhaseEncode": 16.578,
  "BaseResolution": 104,
  "BodyPartExamined": "BRAIN",
  "ConsistencyInfo": "N4_VE11C_LATEST_20160120",
  "ConversionSoftware": "dcm2niix",
  "ConversionSoftwareVersion": "v1.0.20190410  GCC6.3.0",
  "DerivedVendorReportedEchoSpacing": 0.000580009,
  "DeviceSerialNumber": "166018",
  "DwellTime": 2.1e-06,
  "EchoTime": 0.037,
  "EchoTrainLength": 104,
  "EffectiveEchoSpacing": 0.000580009,
  "FlipAngle": 68,
  "ImageComments": "Unaliased_MB6_PE3_LB",
  "ImageOrientationPatientDICOM": [0.999806, -0.017416, -0.00914958, 0.0150081, 0.975913, -0.217641],
  "ImageType": [
    "ORIGINAL",
    "PRIMARY",
    "M",
    "MB",
    "ND",
    "MOSAIC"
],
  "ImagingFrequency": 123.191,
  "InPlanePhaseEncodingDirectionDICOM": "COL",
  "InstitutionAddress": "Washington_Place_6_NYC_NYC_US_10003",
  "InstitutionName": "NYU_Center_for_Brain_Imaging",
  "InstitutionalDepartmentName": "Department",
  "MRAcquisitionType": "2D",
  "MagneticFieldStrength": 3,
  "Manufacturer": "Siemens",
  "ManufacturersModelName": "Prisma",
  "Modality": "MR",
  "MultibandAccelerationFactor": 6,
  "PartialFourier": 1,
  "PatientPosition": "HFS",
  "PercentPhaseFOV": 100,
  "PhaseEncodingDirection": "j",
  "PhaseEncodingSteps": 104,
  "PhaseResolution": 1,
  "PixelBandwidth": 2290,
  "ProcedureStepDescription": "Investigators_Winawer",
  "ProtocolName": "task-sfprescaled_cmrr_mbepi_s6_2mm_66sl_PA_TR1.0",
  "PulseSequenceDetails": "%CustomerSeq%_cmrr_mbep2d_bold",
  "ReceiveCoilActiveElements": "HC1-7",
  "ReceiveCoilName": "HeadNeck_64",
  "ReconMatrixPE": 104,
  "RepetitionTime": 1,
  "SAR": 0.0710762,
  "ScanOptions": "FS",
  "ScanningSequence": "EP",
  "SequenceName": "epfid2d1_104",
  "SequenceVariant": "SK_SS",
  "SeriesDescription": "task-sfprescaled_cmrr_mbepi_s6_2mm_66sl_PA_TR1.0",
  "SeriesNumber": 12,
  "ShimSetting": [279, -12606, -8449, 336, -4, -238, -109, -14],
  "SliceThickness": 2,
  "SliceTiming": [0, 0.535, 0.0875, 0.6225, 0.1775, 0.7125, 0.2675, 0.8, 0.355, 0.89, 0.445, 0, 0.535, 0.0875, 0.6225, 0.1775, 0.7125, 0.2675, 0.8, 0.355, 0.89, 0.445, 0, 0.535, 0.0875, 0.6225, 0.1775, 0.7125, 0.2675, 0.8, 0.355, 0.89, 0.445, 0, 0.535, 0.0875, 0.6225, 0.1775, 0.7125, 0.2675, 0.8, 0.355, 0.89, 0.445, 0, 0.535, 0.0875, 0.6225, 0.1775, 0.7125, 0.2675, 0.8, 0.355, 0.89, 0.445, 0, 0.535, 0.0875, 0.6225, 0.1775, 0.7125, 0.2675, 0.8, 0.355, 0.89, 0.445],
  "SoftwareVersions": "syngo_MR_E11",
  "SpacingBetweenSlices": 2,
  "StationName": "AWP166018",
  "TaskName": "sfprescaled",
  "TotalReadoutTime": 0.0597409,
  "TxRefAmp": 245.7,
  "WipMemBlock": "72863f80-38b2-4e52-a741-2bdc88044504||Sequence: R016 ve11c/master r/8780670; Nov 27 2017 15:05:12 by eja",
  "dcmmeta_affine": [
    [-1.9996129274368286, 0.030016222968697548, -0.025439279153943062, 106.42506408691406],
    [0.03483204543590546, 1.9518269300460815, -0.4349231719970703, -69.68172454833984],
    [-0.01829916052520275, 0.43528205156326294, 1.9519720077514648, -66.03307342529297],
    [0.0, 0.0, 0.0, 1.0]
],
  "dcmmeta_reorient_transform": [
    [0.0, -1.0, 0.0, 103.0],
    [1.0, 0.0, 0.0, 0.0],
    [0.0, 0.0, 1.0, 0.0],
    [0.0, 0.0, 0.0, 1.0]
],
  "dcmmeta_shape": [104, 104, 66, 264],
  "dcmmeta_slice_dim": 2,
  "dcmmeta_version": 0.6,
  "global": {
    "const": {
      "AccessionNumber": "k5rbL6p1",
      "AcquisitionMatrix": [104, 0, 0, 104],
      "AngioFlag": "N",
      "BitsAllocated": 16,
      "BitsStored": 16,
      "BodyPartExamined": "BRAIN",
      "Columns": 936,
      "EchoNumbers": 1,
      "EchoTime": 37.0,
      "EchoTrainLength": 104,
      "FlipAngle": 68.0,
      "HighBit": 15,
      "ImageOrientationPatient": [0.99980646495223, -0.0174160221162, -0.0091495799559, 0.0150081115578, 0.97591349025416, -0.2176410258371],
      "ImagePositionPatient": [-953.84246633373, -928.82634822519, 167.4907630342],
      "ImageType": [
        "ORIGINAL",
        "PRIMARY",
        "M",
        "MB",
        "ND",
        "MOSAIC"
],
      "ImagedNucleus": "1H",
      "ImagingFrequency": 123.190714,
      "InPlanePhaseEncodingDirection": "COL",
      "MRAcquisitionType": "2D",
      "MagneticFieldStrength": 3.0,
      "Manufacturer": "SIEMENS",
      "ManufacturerModelName": "Prisma",
      "Modality": "MR",
      "NumberOfAverages": 1.0,
      "NumberOfPhaseEncodingSteps": 104,
      "PercentPhaseFieldOfView": 100.0,
      "PercentSampling": 100.0,
      "PerformedProcedureStepStartTime": "111304.219000",
      "PhotometricInterpretation": "MONOCHROME2",
      "PixelBandwidth": 2290.0,
      "PixelRepresentation": 0,
      "PixelSpacing": [2.0, 2.0],
      "ProtocolName": "task-sfprescaled_cmrr_mbepi_s6_2mm_66sl_PA_TR1.0",
      "RepetitionTime": 1000.0,
      "Rows": 936,
      "SAR": 0.07107616936717,
      "SamplesPerPixel": 1,
      "ScanOptions": "FS",
      "ScanningSequence": "EP",
      "SequenceName": "epfid2d1_104",
      "SequenceVariant": [
        "SK",
        "SS"
],
      "SeriesDescription": "task-sfprescaled_cmrr_mbepi_s6_2mm_66sl_PA_TR1.0",
      "SeriesNumber": 12,
      "SeriesTime": "112905.504000",
      "SliceLocation": -50.647944165855,
      "SliceThickness": 2.0,
      "SmallestImagePixelValue": 0,
      "SoftwareVersions": "syngo MR E11",
      "SpacingBetweenSlices": 1.9999999674386,
      "SpecificCharacterSet": "ISO_IR 100",
      "StudyID": "1",
      "StudyTime": "111304.154000",
      "TransmitCoilName": "Body",
      "VariableFlipAngleFlag": "N",
      "WindowCenterWidthExplanation": "Algo1",
      "dBdt": 0.0},
    "slices": {}
  },
  "time": {
    "samples": {
      "AcquisitionNumber": [1, 2, 3, 4, 5, 6, 7, 8, 9, 10, 11, 12, 13, 14, 15, 16, 17, 18, 19, 20, 21, 22, 23, 24, 25, 26, 27, 28, 29, 30, 31, 32, 33, 34, 35, 36, 37, 38, 39, 40, 41, 42, 43, 44, 45, 46, 47, 48, 49, 50, 51, 52, 53, 54, 55, 56, 57, 58, 59, 60, 61, 62, 63, 64, 65, 66, 67, 68, 69, 70, 71, 72, 73, 74, 75, 76, 77, 78, 79, 80, 81, 82, 83, 84, 85, 86, 87, 88, 89, 90, 91, 92, 93, 94, 95, 96, 97, 98, 99, 100, 101, 102, 103, 104, 105, 106, 107, 108, 109, 110, 111, 112, 113, 114, 115, 116, 117, 118, 119, 120, 121, 122, 123, 124, 125, 126, 127, 128, 129, 130, 131, 132, 133, 134, 135, 136, 137, 138, 139, 140, 141, 142, 143, 144, 145, 146, 147, 148, 149, 150, 151, 152, 153, 154, 155, 156, 157, 158, 159, 160, 161, 162, 163, 164, 165, 166, 167, 168, 169, 170, 171, 172, 173, 174, 175, 176, 177, 178, 179, 180, 181, 182, 183, 184, 185, 186, 187, 188, 189, 190, 191, 192, 193, 194, 195, 196, 197, 198, 199, 200, 201, 202, 203, 204, 205, 206, 207, 208, 209, 210, 211, 212, 213, 214, 215, 216, 217, 218, 219, 220, 221, 222, 223, 224, 225, 226, 227, 228, 229, 230, 231, 232, 233, 234, 235, 236, 237, 238, 239, 240, 241, 242, 243, 244, 245, 246, 247, 248, 249, 250, 251, 252, 253, 254, 255, 256, 257, 258, 259, 260, 261, 262, 263, 264],
      "AcquisitionTime": ["112750.435000", "112751.435000", "112752.435000", "112753.435000", "112754.435000", "112755.435000", "112756.435000", "112757.435000", "112758.435000", "112759.435000", "112800.435000", "112801.435000", "112802.435000", "112803.435000", "112804.435000", "112805.435000", "112806.435000", "112807.435000", "112808.435000", "112809.435000", "112810.435000", "112811.435000", "112812.435000", "112813.435000", "112814.435000", "112815.435000", "112816.435000", "112817.435000", "112818.435000", "112819.435000", "112820.435000", "112821.435000", "112822.435000", "112823.435000", "112824.435000", "112825.435000", "112826.435000", "112827.435000", "112828.435000", "112829.435000", "112830.435000", "112831.435000", "112832.435000", "112833.435000", "112834.435000", "112835.435000", "112836.435000", "112837.435000", "112838.435000", "112839.435000", "112840.435000", "112841.435000", "112842.435000", "112843.435000", "112844.435000", "112845.435000", "112846.435000", "112847.435000", "112848.435000", "112849.435000", "112850.435000", "112851.435000", "112852.435000", "112853.435000", "112854.435000", "112855.435000", "112856.435000", "112857.435000", "112858.435000", "112859.435000", "112900.435000", "112901.435000", "112902.435000", "112903.435000", "112904.435000", "112905.435000", "112906.435000", "112907.435000", "112908.435000", "112909.435000", "112910.435000", "112911.435000", "112912.435000", "112913.435000", "112914.435000", "112915.435000", "112916.435000", "112917.435000", "112918.435000", "112919.435000", "112920.435000", "112921.435000", "112922.435000", "112923.435000", "112924.435000", "112925.435000", "112926.435000", "112927.435000", "112928.435000", "112929.435000", "112930.435000", "112931.435000", "112932.435000", "112933.435000", "112934.435000", "112935.435000", "112936.435000", "112937.435000", "112938.435000", "112939.435000", "112940.435000", "112941.435000", "112942.435000", "112943.435000", "112944.435000", "112945.435000", "112946.435000", "112947.435000", "112948.435000", "112949.435000", "112950.435000", "112951.435000", "112952.435000", "112953.435000", "112954.435000", "112955.435000", "112956.435000", "112957.435000", "112958.435000", "112959.435000", "113000.435000", "113001.435000", "113002.435000", "113003.435000", "113004.435000", "113005.435000", "113006.435000", "113007.435000", "113008.435000", "113009.435000", "113010.435000", "113011.435000", "113012.435000", "113013.435000", "113014.435000", "113015.435000", "113016.435000", "113017.435000", "113018.435000", "113019.435000", "113020.435000", "113021.435000", "113022.435000", "113023.435000", "113024.435000", "113025.435000", "113026.435000", "113027.435000", "113028.435000", "113029.435000", "113030.435000", "113031.435000", "113032.435000", "113033.435000", "113034.435000", "113035.435000", "113036.435000", "113037.435000", "113038.435000", "113039.435000", "113040.435000", "113041.435000", "113042.435000", "113043.435000", "113044.435000", "113045.435000", "113046.435000", "113047.435000", "113048.435000", "113049.435000", "113050.435000", "113051.435000", "113052.435000", "113053.435000", "113054.435000", "113055.435000", "113056.435000", "113057.435000", "113058.435000", "113059.435000", "113100.435000", "113101.435000", "113102.435000", "113103.435000", "113104.435000", "113105.435000", "113106.435000", "113107.435000", "113108.435000", "113109.435000", "113110.435000", "113111.435000", "113112.435000", "113113.435000", "113114.435000", "113115.435000", "113116.435000", "113117.435000", "113118.435000", "113119.435000", "113120.435000", "113121.435000", "113122.435000", "113123.435000", "113124.435000", "113125.435000", "113126.435000", "113127.435000", "113128.435000", "113129.435000", "113130.435000", "113131.435000", "113132.435000", "113133.435000", "113134.435000", "113135.435000", "113136.435000", "113137.435000", "113138.435000", "113139.435000", "113140.435000", "113141.435000", "113142.435000", "113143.435000", "113144.435000", "113145.435000", "113146.435000", "113147.435000", "113148.435000", "113149.435000", "113150.435000", "113151.435000", "113152.435000", "113153.435000", "113154.435000", "113155.435000", "113156.435000", "113157.435000", "113158.435000", "113159.435000", "113200.435000", "113201.435000", "113202.435000", "113203.435000", "113204.435000", "113205.435000", "113206.435000", "113207.435000", "113208.435000", "113209.435000", "113210.435000", "113211.435000", "113212.435000", "113213.435000"],
      "ContentTime": ["112905.507000", "112905.510000", "112905.513000", "112905.516000", "112905.519000", "112905.522000", "112905.525000", "112905.528000", "112905.531000", "112905.534000", "112905.537000", "112905.540000", "112905.551000", "112905.554000", "112905.557000", "112905.560000", "112905.562000", "112905.565000", "112905.568000", "112905.571000", "112905.574000", "112905.577000", "112905.582000", "112905.585000", "112905.588000", "112905.590000", "112905.593000", "112905.596000", "112905.599000", "112905.602000", "112905.605000", "112905.608000", "112905.610000", "112905.613000", "112905.616000", "112925.481000", "112925.485000", "112925.488000", "112925.491000", "112925.493000", "112925.496000", "112925.499000", "112925.502000", "112925.505000", "112925.508000", "112925.511000", "112925.513000", "112925.516000", "112925.519000", "112925.522000", "112925.525000", "112925.528000", "112925.531000", "112925.534000", "112925.537000", "112925.540000", "112925.542000", "112925.545000", "112925.548000", "112925.551000", "112925.554000", "112925.557000", "112925.560000", "112925.563000", "112945.480000", "112945.483000", "112945.486000", "112945.489000", "112945.492000", "112945.494000", "112945.497000", "112945.500000", "112945.503000", "112945.506000", "112945.509000", "112945.512000", "112945.515000", "112945.517000", "112945.520000", "112945.523000", "112945.526000", "112945.529000", "112945.532000", "112945.535000", "112945.542000", "112945.545000", "112945.548000", "112945.551000", "112945.554000", "112945.557000", "112945.560000", "112945.563000", "113005.480000", "113005.483000", "113005.486000", "113005.488000", "113005.491000", "113005.494000", "113005.497000", "113005.500000", "113005.503000", "113005.506000", "113005.566000", "113005.569000", "113005.572000", "113005.575000", "113005.578000", "113005.581000", "113005.583000", "113005.586000", "113005.589000", "113005.592000", "113005.595000", "113005.598000", "113005.601000", "113005.604000", "113005.606000", "113005.609000", "113005.612000", "113005.615000", "113025.480000", "113025.483000", "113025.486000", "113025.488000", "113025.491000", "113025.494000", "113025.497000", "113025.500000", "113025.503000", "113025.506000", "113025.509000", "113025.511000", "113025.514000", "113025.517000", "113025.520000", "113025.523000", "113025.526000", "113025.529000", "113025.532000", "113025.534000", "113025.537000", "113025.540000", "113025.543000", "113025.546000", "113025.549000", "113025.552000", "113025.555000", "113025.558000", "113025.561000", "113045.481000", "113045.484000", "113045.487000", "113045.490000", "113045.492000", "113045.495000", "113045.498000", "113045.501000", "113045.504000", "113045.507000", "113045.510000", "113045.512000", "113045.515000", "113045.518000", "113045.521000", "113045.524000", "113045.527000", "113045.530000", "113045.533000", "113045.536000", "113045.538000", "113045.541000", "113045.544000", "113045.547000", "113045.550000", "113105.480000", "113105.483000", "113105.486000", "113105.489000", "113105.492000", "113105.494000", "113105.497000", "113105.500000", "113105.503000", "113105.506000", "113105.509000", "113105.528000", "113105.530000", "113105.533000", "113105.536000", "113105.539000", "113105.542000", "113105.545000", "113105.548000", "113105.551000", "113125.481000", "113125.484000", "113125.487000", "113125.490000", "113125.493000", "113125.495000", "113125.498000", "113125.501000", "113125.504000", "113125.507000", "113125.510000", "113125.513000", "113125.516000", "113125.519000", "113125.521000", "113125.524000", "113125.527000", "113125.530000", "113125.533000", "113125.536000", "113145.481000", "113145.484000", "113145.487000", "113145.490000", "113145.492000", "113145.495000", "113145.498000", "113145.501000", "113145.504000", "113145.507000", "113145.510000", "113145.513000", "113145.516000", "113145.519000", "113145.521000", "113145.524000", "113145.527000", "113145.530000", "113145.533000", "113145.536000", "113205.480000", "113205.483000", "113205.486000", "113205.489000", "113205.492000", "113205.495000", "113205.497000", "113205.500000", "113205.503000", "113205.506000", "113205.509000", "113205.512000", "113205.515000", "113205.518000", "113205.520000", "113205.523000", "113205.526000", "113205.529000", "113205.532000", "113205.535000", "113215.040000", "113215.043000", "113215.046000", "113215.049000", "113215.052000", "113215.055000", "113215.058000", "113215.060000", "113215.063000", "113215.066000"],
      "InstanceCreationTime": ["112905.507000", "112905.510000", "112905.513000", "112905.516000", "112905.519000", "112905.522000", "112905.525000", "112905.528000", "112905.531000", "112905.534000", "112905.537000", "112905.540000", "112905.551000", "112905.554000", "112905.557000", "112905.560000", "112905.562000", "112905.565000", "112905.568000", "112905.571000", "112905.574000", "112905.577000", "112905.582000", "112905.585000", "112905.588000", "112905.590000", "112905.593000", "112905.596000", "112905.599000", "112905.602000", "112905.605000", "112905.608000", "112905.610000", "112905.613000", "112905.616000", "112925.481000", "112925.485000", "112925.488000", "112925.491000", "112925.493000", "112925.496000", "112925.499000", "112925.502000", "112925.505000", "112925.508000", "112925.511000", "112925.513000", "112925.516000", "112925.519000", "112925.522000", "112925.525000", "112925.528000", "112925.531000", "112925.534000", "112925.537000", "112925.540000", "112925.542000", "112925.545000", "112925.548000", "112925.551000", "112925.554000", "112925.557000", "112925.560000", "112925.563000", "112945.480000", "112945.483000", "112945.486000", "112945.489000", "112945.492000", "112945.494000", "112945.497000", "112945.500000", "112945.503000", "112945.506000", "112945.509000", "112945.512000", "112945.515000", "112945.517000", "112945.520000", "112945.523000", "112945.526000", "112945.529000", "112945.532000", "112945.535000", "112945.542000", "112945.545000", "112945.548000", "112945.551000", "112945.554000", "112945.557000", "112945.560000", "112945.563000", "113005.480000", "113005.483000", "113005.486000", "113005.488000", "113005.491000", "113005.494000", "113005.497000", "113005.500000", "113005.503000", "113005.506000", "113005.566000", "113005.569000", "113005.572000", "113005.575000", "113005.578000", "113005.581000", "113005.583000", "113005.586000", "113005.589000", "113005.592000", "113005.595000", "113005.598000", "113005.601000", "113005.604000", "113005.606000", "113005.609000", "113005.612000", "113005.615000", "113025.480000", "113025.483000", "113025.486000", "113025.488000", "113025.491000", "113025.494000", "113025.497000", "113025.500000", "113025.503000", "113025.506000", "113025.509000", "113025.511000", "113025.514000", "113025.517000", "113025.520000", "113025.523000", "113025.526000", "113025.529000", "113025.532000", "113025.534000", "113025.537000", "113025.540000", "113025.543000", "113025.546000", "113025.549000", "113025.552000", "113025.555000", "113025.558000", "113025.561000", "113045.481000", "113045.484000", "113045.487000", "113045.490000", "113045.492000", "113045.495000", "113045.498000", "113045.501000", "113045.504000", "113045.507000", "113045.510000", "113045.512000", "113045.515000", "113045.518000", "113045.521000", "113045.524000", "113045.527000", "113045.530000", "113045.533000", "113045.536000", "113045.538000", "113045.541000", "113045.544000", "113045.547000", "113045.550000", "113105.480000", "113105.483000", "113105.486000", "113105.489000", "113105.492000", "113105.494000", "113105.497000", "113105.500000", "113105.503000", "113105.506000", "113105.509000", "113105.528000", "113105.530000", "113105.533000", "113105.536000", "113105.539000", "113105.542000", "113105.545000", "113105.548000", "113105.551000", "113125.481000", "113125.484000", "113125.487000", "113125.490000", "113125.493000", "113125.495000", "113125.498000", "113125.501000", "113125.504000", "113125.507000", "113125.510000", "113125.513000", "113125.516000", "113125.519000", "113125.521000", "113125.524000", "113125.527000", "113125.530000", "113125.533000", "113125.536000", "113145.481000", "113145.484000", "113145.487000", "113145.490000", "113145.492000", "113145.495000", "113145.498000", "113145.501000", "113145.504000", "113145.507000", "113145.510000", "113145.513000", "113145.516000", "113145.519000", "113145.521000", "113145.524000", "113145.527000", "113145.530000", "113145.533000", "113145.536000", "113205.480000", "113205.483000", "113205.486000", "113205.489000", "113205.492000", "113205.495000", "113205.497000", "113205.500000", "113205.503000", "113205.506000", "113205.509000", "113205.512000", "113205.515000", "113205.518000", "113205.520000", "113205.523000", "113205.526000", "113205.529000", "113205.532000", "113205.535000", "113215.040000", "113215.043000", "113215.046000", "113215.049000", "113215.052000", "113215.055000", "113215.058000", "113215.060000", "113215.063000", "113215.066000"],
      "InstanceNumber": [1, 2, 3, 4, 5, 6, 7, 8, 9, 10, 11, 12, 13, 14, 15, 16, 17, 18, 19, 20, 21, 22, 23, 24, 25, 26, 27, 28, 29, 30, 31, 32, 33, 34, 35, 36, 37, 38, 39, 40, 41, 42, 43, 44, 45, 46, 47, 48, 49, 50, 51, 52, 53, 54, 55, 56, 57, 58, 59, 60, 61, 62, 63, 64, 65, 66, 67, 68, 69, 70, 71, 72, 73, 74, 75, 76, 77, 78, 79, 80, 81, 82, 83, 84, 85, 86, 87, 88, 89, 90, 91, 92, 93, 94, 95, 96, 97, 98, 99, 100, 101, 102, 103, 104, 105, 106, 107, 108, 109, 110, 111, 112, 113, 114, 115, 116, 117, 118, 119, 120, 121, 122, 123, 124, 125, 126, 127, 128, 129, 130, 131, 132, 133, 134, 135, 136, 137, 138, 139, 140, 141, 142, 143, 144, 145, 146, 147, 148, 149, 150, 151, 152, 153, 154, 155, 156, 157, 158, 159, 160, 161, 162, 163, 164, 165, 166, 167, 168, 169, 170, 171, 172, 173, 174, 175, 176, 177, 178, 179, 180, 181, 182, 183, 184, 185, 186, 187, 188, 189, 190, 191, 192, 193, 194, 195, 196, 197, 198, 199, 200, 201, 202, 203, 204, 205, 206, 207, 208, 209, 210, 211, 212, 213, 214, 215, 216, 217, 218, 219, 220, 221, 222, 223, 224, 225, 226, 227, 228, 229, 230, 231, 232, 233, 234, 235, 236, 237, 238, 239, 240, 241, 242, 243, 244, 245, 246, 247, 248, 249, 250, 251, 252, 253, 254, 255, 256, 257, 258, 259, 260, 261, 262, 263, 264],
      "LargestImagePixelValue": [34151, 32867, 32926, 32304, 32025, 32215, 32301, 32242, 32057, 31798, 31621, 31788, 31745, 31444, 31803, 31909, 31775, 31848, 31619, 31762, 31789, 32176, 32285, 32070, 32148, 32044, 32250, 32391, 32126, 32420, 32313, 32209, 31692, 31972, 31734, 32189, 31529, 31606, 32108, 31716, 31376, 31594, 32005, 32388, 31994, 31911, 32071, 32281, 31588, 31421, 32063, 31648, 31584, 31980, 32095, 31471, 31804, 31960, 31713, 31748, 32102, 31926, 32150, 31789, 31764, 31738, 31850, 31767, 31787, 31746, 31630, 31726, 31683, 31929, 31691, 31645, 31866, 31887, 31325, 31415, 31924, 31894, 32100, 31801, 31721, 31692, 31488, 31897, 31427, 31418, 31611, 32009, 31591, 31462, 31684, 32048, 32049, 32209, 31855, 31716, 31808, 32206, 32159, 31552, 31986, 31532, 31551, 31229, 31864, 32019, 31638, 31639, 31611, 31936, 32116, 31227, 31427, 31133, 32219, 31870, 31904, 31811, 31736, 31580, 32048, 31736, 31984, 31415, 31561, 31925, 31679, 31497, 31566, 31540, 32221, 32450, 32167, 31644, 31865, 32305, 32046, 32281, 32124, 32252, 32177, 32178, 31948, 31784, 31693, 31371, 31328, 31169, 32037, 31738, 31387, 31496, 31899, 31835, 31422, 31656, 31543, 32255, 31704, 31721, 32148, 32069, 31242, 31959, 32023, 32086, 32111, 31976, 31525, 31678, 31563, 31802, 32379, 31995, 31713, 31823, 32312, 32354, 31579, 31875, 31928, 32195, 31992, 32613, 32483, 32662, 32041, 32323, 32338, 31843, 31782, 31958, 32455, 32102, 31825, 31905, 32665, 32679, 32364, 32184, 31879, 32182, 31726, 32217, 32053, 31856, 32331, 32288, 32074, 32015, 32543, 32397, 32361, 32430, 32004, 32204, 32220, 31820, 31753, 31797, 31757, 31236, 31586, 32572, 32541, 31960, 32083, 32295, 32190, 32228, 32050, 32111, 32217, 31849, 32075, 32178, 32442, 31294, 31828, 31628, 31825, 32140, 31775, 31693, 31688, 31358, 31809, 31812, 31498, 31807, 32065, 31677, 31651, 31618, 31898, 31889, 31738, 31750, 32061, 31968],
      "WindowCenter": [9576.0, 9534.0, 9524.0, 9517.0, 9510.0, 9507.0, 9497.0, 9496.0, 9482.0, 9475.0, 9467.0, 9466.0, 9472.0, 9459.0, 9464.0, 9471.0, 9472.0, 9472.0, 9465.0, 9465.0, 9473.0, 9487.0, 9488.0, 9481.0, 9480.0, 9473.0, 9486.0, 9494.0, 9490.0, 9489.0, 9496.0, 9496.0, 9482.0, 9480.0, 9475.0, 9489.0, 9483.0, 9484.0, 9498.0, 9494.0, 9486.0, 9482.0, 9488.0, 9486.0, 9473.0, 9479.0, 9480.0, 9487.0, 9482.0, 9483.0, 9496.0, 9492.0, 9499.0, 9505.0, 9507.0, 9496.0, 9501.0, 9498.0, 9485.0, 9476.0, 9479.0, 9472.0, 9471.0, 9478.0, 9480.0, 9497.0, 9499.0, 9500.0, 9491.0, 9483.0, 9481.0, 9474.0, 9474.0, 9496.0, 9499.0, 9501.0, 9499.0, 9498.0, 9484.0, 9484.0, 9497.0, 9491.0, 9497.0, 9486.0, 9493.0, 9499.0, 9486.0, 9483.0, 9467.0, 9458.0, 9456.0, 9467.0, 9462.0, 9482.0, 9509.0, 9519.0, 9518.0, 9516.0, 9501.0, 9485.0, 9483.0, 9487.0, 9481.0, 9474.0, 9479.0, 9472.0, 9473.0, 9467.0, 9482.0, 9496.0, 9492.0, 9493.0, 9492.0, 9499.0, 9500.0, 9487.0, 9479.0, 9480.0, 9498.0, 9488.0, 9480.0, 9481.0, 9483.0, 9482.0, 9489.0, 9490.0, 9489.0, 9470.0, 9474.0, 9480.0, 9481.0, 9484.0, 9501.0, 9512.0, 9516.0, 9507.0, 9500.0, 9491.0, 9489.0, 9495.0, 9497.0, 9505.0, 9500.0, 9513.0, 9514.0, 9505.0, 9489.0, 9474.0, 9472.0, 9457.0, 9465.0, 9475.0, 9498.0, 9500.0, 9496.0, 9496.0, 9508.0, 9501.0, 9479.0, 9475.0, 9480.0, 9485.0, 9473.0, 9475.0, 9489.0, 9496.0, 9484.0, 9490.0, 9491.0, 9499.0, 9499.0, 9501.0, 9501.0, 9494.0, 9485.0, 9485.0, 9495.0, 9500.0, 9501.0, 9495.0, 9499.0, 9497.0, 9476.0, 9473.0, 9479.0, 9479.0, 9480.0, 9492.0, 9496.0, 9512.0, 9499.0, 9498.0, 9497.0, 9484.0, 9475.0, 9480.0, 9488.0, 9491.0, 9492.0, 9500.0, 9512.0, 9512.0, 9499.0, 9497.0, 9491.0, 9495.0, 9483.0, 9488.0, 9490.0, 9490.0, 9496.0, 9506.0, 9511.0, 9518.0, 9522.0, 9515.0, 9507.0, 9490.0, 9481.0, 9487.0, 9496.0, 9493.0, 9500.0, 9501.0, 9501.0, 9494.0, 9490.0, 9502.0, 9500.0, 9488.0, 9498.0, 9506.0, 9513.0, 9498.0, 9484.0, 9484.0, 9488.0, 9481.0, 9488.0, 9496.0, 9498.0, 9488.0, 9501.0, 9502.0, 9494.0, 9491.0, 9482.0, 9476.0, 9474.0, 9461.0, 9474.0, 9482.0, 9485.0, 9492.0, 9501.0, 9494.0, 9491.0, 9476.0, 9482.0, 9488.0, 9474.0, 9473.0, 9488.0, 9490.0],
      "WindowWidth": [20382.0, 20279.0, 20249.0, 20232.0, 20218.0, 20203.0, 20178.0, 20174.0, 20150.0, 20135.0, 20118.0, 20115.0, 20127.0, 20107.0, 20112.0, 20125.0, 20127.0, 20127.0, 20114.0, 20115.0, 20132.0, 20160.0, 20162.0, 20149.0, 20145.0, 20132.0, 20159.0, 20174.0, 20169.0, 20166.0, 20178.0, 20177.0, 20151.0, 20145.0, 20139.0, 20165.0, 20157.0, 20158.0, 20185.0, 20179.0, 20164.0, 20152.0, 20159.0, 20156.0, 20133.0, 20143.0, 20145.0, 20159.0, 20153.0, 20158.0, 20180.0, 20177.0, 20190.0, 20199.0, 20204.0, 20189.0, 20195.0, 20183.0, 20158.0, 20141.0, 20139.0, 20126.0, 20128.0, 20141.0, 20149.0, 20184.0, 20189.0, 20191.0, 20172.0, 20156.0, 20150.0, 20137.0, 20137.0, 20179.0, 20191.0, 20196.0, 20188.0, 20184.0, 20158.0, 20158.0, 20180.0, 20171.0, 20181.0, 20161.0, 20175.0, 20184.0, 20161.0, 20150.0, 20116.0, 20097.0, 20092.0, 20111.0, 20106.0, 20153.0, 20213.0, 20236.0, 20229.0, 20221.0, 20190.0, 20157.0, 20149.0, 20155.0, 20144.0, 20132.0, 20138.0, 20127.0, 20129.0, 20121.0, 20149.0, 20178.0, 20173.0, 20177.0, 20172.0, 20188.0, 20191.0, 20169.0, 20152.0, 20156.0, 20183.0, 20164.0, 20143.0, 20148.0, 20153.0, 20152.0, 20166.0, 20170.0, 20165.0, 20132.0, 20134.0, 20144.0, 20148.0, 20161.0, 20195.0, 20219.0, 20222.0, 20203.0, 20188.0, 20170.0, 20165.0, 20172.0, 20182.0, 20197.0, 20189.0, 20210.0, 20212.0, 20193.0, 20159.0, 20131.0, 20126.0, 20099.0, 20114.0, 20140.0, 20186.0, 20192.0, 20188.0, 20185.0, 20206.0, 20193.0, 20151.0, 20135.0, 20142.0, 20149.0, 20133.0, 20136.0, 20163.0, 20179.0, 20158.0, 20167.0, 20172.0, 20187.0, 20189.0, 20192.0, 20193.0, 20179.0, 20157.0, 20161.0, 20175.0, 20189.0, 20193.0, 20182.0, 20182.0, 20176.0, 20138.0, 20131.0, 20141.0, 20143.0, 20147.0, 20166.0, 20179.0, 20210.0, 20187.0, 20182.0, 20178.0, 20153.0, 20134.0, 20141.0, 20158.0, 20170.0, 20173.0, 20187.0, 20209.0, 20209.0, 20184.0, 20179.0, 20167.0, 20173.0, 20155.0, 20160.0, 20166.0, 20167.0, 20178.0, 20202.0, 20218.0, 20230.0, 20232.0, 20220.0, 20200.0, 20165.0, 20144.0, 20157.0, 20178.0, 20178.0, 20190.0, 20190.0, 20191.0, 20178.0, 20164.0, 20184.0, 20179.0, 20160.0, 20179.0, 20196.0, 20212.0, 20182.0, 20152.0, 20154.0, 20159.0, 20146.0, 20158.0, 20173.0, 20180.0, 20167.0, 20191.0, 20191.0, 20175.0, 20167.0, 20146.0, 20137.0, 20131.0, 20107.0, 20130.0, 20148.0, 20157.0, 20171.0, 20186.0, 20174.0, 20163.0, 20133.0, 20145.0, 20154.0, 20131.0, 20128.0, 20158.0, 20166.0]
    },
    "slices": {}
  },
  "NumberOfVolumes": 264
}