{
  "AcquisitionMatrixPE": 104,
  "AcquisitionNumber": 1,
  "AcquisitionTime": "11:23:5.430000",
  "BandwidthPerPixelPhaseEncode": 16.578,
  "BaseResolution": 104,
  "BodyPartExamined": "BRAIN",
  "ConsistencyInfo": "N4_VE11C_LATEST_20160120",
  "ConversionSoftware": "dcm2niix",
  "ConversionSoftwareVersion": "v1.0.20190410  GCC6.3.0",
  "DerivedVendorReportedEchoSpacing": 0.000580009,
  "DeviceSerialNumber": "166018",
  "DwellTime": 2.1e-06,
  "EchoTime": 0.037,
  "EchoTrainLength": 104,
  "EffectiveEchoSpacing": 0.000580009,
  "FlipAngle": 68,
  "ImageComments": "Unaliased_MB6_PE3_LB",
  "ImageOrientationPatientDICOM": [0.999806, -0.017416, -0.00914958, 0.0150081, 0.975913, -0.217641],
  "ImageType": [
    "ORIGINAL",
    "PRIMARY",
    "M",
    "MB",
    "ND",
    "MOSAIC"
],
  "ImagingFrequency": 123.191,
  "InPlanePhaseEncodingDirectionDICOM": "COL",
  "InstitutionAddress": "Washington_Place_6_NYC_NYC_US_10003",
  "InstitutionName": "NYU_Center_for_Brain_Imaging",
  "InstitutionalDepartmentName": "Department",
  "MRAcquisitionType": "2D",
  "MagneticFieldStrength": 3,
  "Manufacturer": "Siemens",
  "ManufacturersModelName": "Prisma",
  "Modality": "MR",
  "MultibandAccelerationFactor": 6,
  "PartialFourier": 1,
  "PatientPosition": "HFS",
  "PercentPhaseFOV": 100,
  "PhaseEncodingDirection": "j",
  "PhaseEncodingSteps": 104,
  "PhaseResolution": 1,
  "PixelBandwidth": 2290,
  "ProcedureStepDescription": "Investigators_Winawer",
  "ProtocolName": "task-sfprescaled_cmrr_mbepi_s6_2mm_66sl_PA_TR1.0",
  "PulseSequenceDetails": "%CustomerSeq%_cmrr_mbep2d_bold",
  "ReceiveCoilActiveElements": "HC1-7",
  "ReceiveCoilName": "HeadNeck_64",
  "ReconMatrixPE": 104,
  "RepetitionTime": 1,
  "SAR": 0.0710762,
  "ScanOptions": "FS",
  "ScanningSequence": "EP",
  "SequenceName": "epfid2d1_104",
  "SequenceVariant": "SK_SS",
  "SeriesDescription": "task-sfprescaled_cmrr_mbepi_s6_2mm_66sl_PA_TR1.0",
  "SeriesNumber": 10,
  "ShimSetting": [279, -12606, -8449, 336, -4, -238, -109, -14],
  "SliceThickness": 2,
  "SliceTiming": [0, 0.535, 0.09, 0.625, 0.1775, 0.7125, 0.2675, 0.8025, 0.3575, 0.89, 0.445, 0, 0.535, 0.09, 0.625, 0.1775, 0.7125, 0.2675, 0.8025, 0.3575, 0.89, 0.445, 0, 0.535, 0.09, 0.625, 0.1775, 0.7125, 0.2675, 0.8025, 0.3575, 0.89, 0.445, 0, 0.535, 0.09, 0.625, 0.1775, 0.7125, 0.2675, 0.8025, 0.3575, 0.89, 0.445, 0, 0.535, 0.09, 0.625, 0.1775, 0.7125, 0.2675, 0.8025, 0.3575, 0.89, 0.445, 0, 0.535, 0.09, 0.625, 0.1775, 0.7125, 0.2675, 0.8025, 0.3575, 0.89, 0.445],
  "SoftwareVersions": "syngo_MR_E11",
  "SpacingBetweenSlices": 2,
  "StationName": "AWP166018",
  "TaskName": "sfprescaled",
  "TotalReadoutTime": 0.0597409,
  "TxRefAmp": 245.7,
  "WipMemBlock": "72863f80-38b2-4e52-a741-2bdc88044504||Sequence: R016 ve11c/master r/8780670; Nov 27 2017 15:05:12 by eja",
  "dcmmeta_affine": [
    [-1.9996129274368286, 0.030016222968697548, -0.025439279153943062, 106.42506408691406],
    [0.03483204543590546, 1.9518269300460815, -0.4349231719970703, -69.68172454833984],
    [-0.01829916052520275, 0.43528205156326294, 1.9519720077514648, -66.03307342529297],
    [0.0, 0.0, 0.0, 1.0]
],
  "dcmmeta_reorient_transform": [
    [0.0, -1.0, 0.0, 103.0],
    [1.0, 0.0, 0.0, 0.0],
    [0.0, 0.0, 1.0, 0.0],
    [0.0, 0.0, 0.0, 1.0]
],
  "dcmmeta_shape": [104, 104, 66, 264],
  "dcmmeta_slice_dim": 2,
  "dcmmeta_version": 0.6,
  "global": {
    "const": {
      "AccessionNumber": "k5rbL6p1",
      "AcquisitionMatrix": [104, 0, 0, 104],
      "AngioFlag": "N",
      "BitsAllocated": 16,
      "BitsStored": 16,
      "BodyPartExamined": "BRAIN",
      "Columns": 936,
      "EchoNumbers": 1,
      "EchoTime": 37.0,
      "EchoTrainLength": 104,
      "FlipAngle": 68.0,
      "HighBit": 15,
      "ImageOrientationPatient": [0.99980646495223, -0.0174160221162, -0.0091495799559, 0.0150081115578, 0.97591349025416, -0.2176410258371],
      "ImagePositionPatient": [-953.84246633373, -928.82634822519, 167.4907630342],
      "ImageType": [
        "ORIGINAL",
        "PRIMARY",
        "M",
        "MB",
        "ND",
        "MOSAIC"
],
      "ImagedNucleus": "1H",
      "ImagingFrequency": 123.190714,
      "InPlanePhaseEncodingDirection": "COL",
      "MRAcquisitionType": "2D",
      "MagneticFieldStrength": 3.0,
      "Manufacturer": "SIEMENS",
      "ManufacturerModelName": "Prisma",
      "Modality": "MR",
      "NumberOfAverages": 1.0,
      "NumberOfPhaseEncodingSteps": 104,
      "PercentPhaseFieldOfView": 100.0,
      "PercentSampling": 100.0,
      "PerformedProcedureStepStartTime": "111304.219000",
      "PhotometricInterpretation": "MONOCHROME2",
      "PixelBandwidth": 2290.0,
      "PixelRepresentation": 0,
      "PixelSpacing": [2.0, 2.0],
      "ProtocolName": "task-sfprescaled_cmrr_mbepi_s6_2mm_66sl_PA_TR1.0",
      "RepetitionTime": 1000.0,
      "Rows": 936,
      "SAR": 0.07107616936717,
      "SamplesPerPixel": 1,
      "ScanOptions": "FS",
      "ScanningSequence": "EP",
      "SequenceName": "epfid2d1_104",
      "SequenceVariant": [
        "SK",
        "SS"
],
      "SeriesDescription": "task-sfprescaled_cmrr_mbepi_s6_2mm_66sl_PA_TR1.0",
      "SeriesNumber": 10,
      "SeriesTime": "112405.653000",
      "SliceLocation": -50.647944165855,
      "SliceThickness": 2.0,
      "SmallestImagePixelValue": 0,
      "SoftwareVersions": "syngo MR E11",
      "SpacingBetweenSlices": 1.9999999674386,
      "SpecificCharacterSet": "ISO_IR 100",
      "StudyID": "1",
      "StudyTime": "111304.154000",
      "TransmitCoilName": "Body",
      "VariableFlipAngleFlag": "N",
      "WindowCenterWidthExplanation": "Algo1",
      "dBdt": 0.0},
    "slices": {}
  },
  "time": {
    "samples": {
      "AcquisitionNumber": [1, 2, 3, 4, 5, 6, 7, 8, 9, 10, 11, 12, 13, 14, 15, 16, 17, 18, 19, 20, 21, 22, 23, 24, 25, 26, 27, 28, 29, 30, 31, 32, 33, 34, 35, 36, 37, 38, 39, 40, 41, 42, 43, 44, 45, 46, 47, 48, 49, 50, 51, 52, 53, 54, 55, 56, 57, 58, 59, 60, 61, 62, 63, 64, 65, 66, 67, 68, 69, 70, 71, 72, 73, 74, 75, 76, 77, 78, 79, 80, 81, 82, 83, 84, 85, 86, 87, 88, 89, 90, 91, 92, 93, 94, 95, 96, 97, 98, 99, 100, 101, 102, 103, 104, 105, 106, 107, 108, 109, 110, 111, 112, 113, 114, 115, 116, 117, 118, 119, 120, 121, 122, 123, 124, 125, 126, 127, 128, 129, 130, 131, 132, 133, 134, 135, 136, 137, 138, 139, 140, 141, 142, 143, 144, 145, 146, 147, 148, 149, 150, 151, 152, 153, 154, 155, 156, 157, 158, 159, 160, 161, 162, 163, 164, 165, 166, 167, 168, 169, 170, 171, 172, 173, 174, 175, 176, 177, 178, 179, 180, 181, 182, 183, 184, 185, 186, 187, 188, 189, 190, 191, 192, 193, 194, 195, 196, 197, 198, 199, 200, 201, 202, 203, 204, 205, 206, 207, 208, 209, 210, 211, 212, 213, 214, 215, 216, 217, 218, 219, 220, 221, 222, 223, 224, 225, 226, 227, 228, 229, 230, 231, 232, 233, 234, 235, 236, 237, 238, 239, 240, 241, 242, 243, 244, 245, 246, 247, 248, 249, 250, 251, 252, 253, 254, 255, 256, 257, 258, 259, 260, 261, 262, 263, 264],
      "AcquisitionTime": ["112305.430000", "112306.430000", "112307.430000", "112308.430000", "112309.430000", "112310.430000", "112311.430000", "112312.430000", "112313.430000", "112314.430000", "112315.430000", "112316.430000", "112317.430000", "112318.430000", "112319.430000", "112320.430000", "112321.430000", "112322.430000", "112323.430000", "112324.430000", "112325.430000", "112326.430000", "112327.430000", "112328.430000", "112329.430000", "112330.430000", "112331.430000", "112332.430000", "112333.430000", "112334.430000", "112335.430000", "112336.430000", "112337.430000", "112338.430000", "112339.430000", "112340.430000", "112341.430000", "112342.430000", "112343.430000", "112344.430000", "112345.430000", "112346.430000", "112347.430000", "112348.430000", "112349.430000", "112350.430000", "112351.430000", "112352.430000", "112353.430000", "112354.430000", "112355.430000", "112356.430000", "112357.430000", "112358.430000", "112359.430000", "112400.430000", "112401.430000", "112402.430000", "112403.430000", "112404.430000", "112405.430000", "112406.430000", "112407.430000", "112408.430000", "112409.430000", "112410.430000", "112411.430000", "112412.430000", "112413.430000", "112414.430000", "112415.430000", "112416.430000", "112417.430000", "112418.430000", "112419.430000", "112420.430000", "112421.430000", "112422.430000", "112423.430000", "112424.430000", "112425.430000", "112426.430000", "112427.430000", "112428.430000", "112429.430000", "112430.430000", "112431.430000", "112432.430000", "112433.430000", "112434.430000", "112435.430000", "112436.430000", "112437.430000", "112438.430000", "112439.430000", "112440.430000", "112441.430000", "112442.430000", "112443.430000", "112444.430000", "112445.430000", "112446.430000", "112447.430000", "112448.430000", "112449.430000", "112450.430000", "112451.430000", "112452.430000", "112453.430000", "112454.430000", "112455.430000", "112456.430000", "112457.430000", "112458.430000", "112459.430000", "112500.430000", "112501.430000", "112502.430000", "112503.430000", "112504.430000", "112505.430000", "112506.430000", "112507.430000", "112508.430000", "112509.430000", "112510.430000", "112511.430000", "112512.430000", "112513.430000", "112514.430000", "112515.430000", "112516.430000", "112517.430000", "112518.430000", "112519.430000", "112520.430000", "112521.430000", "112522.430000", "112523.430000", "112524.430000", "112525.430000", "112526.430000", "112527.430000", "112528.430000", "112529.430000", "112530.430000", "112531.430000", "112532.430000", "112533.430000", "112534.430000", "112535.430000", "112536.430000", "112537.430000", "112538.430000", "112539.430000", "112540.430000", "112541.430000", "112542.430000", "112543.430000", "112544.430000", "112545.430000", "112546.430000", "112547.430000", "112548.430000", "112549.430000", "112550.430000", "112551.430000", "112552.430000", "112553.430000", "112554.430000", "112555.430000", "112556.430000", "112557.430000", "112558.430000", "112559.430000", "112600.430000", "112601.430000", "112602.430000", "112603.430000", "112604.430000", "112605.430000", "112606.430000", "112607.430000", "112608.430000", "112609.430000", "112610.430000", "112611.430000", "112612.430000", "112613.430000", "112614.430000", "112615.430000", "112616.430000", "112617.430000", "112618.430000", "112619.430000", "112620.430000", "112621.430000", "112622.430000", "112623.430000", "112624.430000", "112625.430000", "112626.430000", "112627.430000", "112628.430000", "112629.430000", "112630.430000", "112631.430000", "112632.430000", "112633.430000", "112634.430000", "112635.430000", "112636.430000", "112637.430000", "112638.430000", "112639.430000", "112640.430000", "112641.430000", "112642.430000", "112643.430000", "112644.430000", "112645.430000", "112646.430000", "112647.430000", "112648.430000", "112649.430000", "112650.430000", "112651.430000", "112652.430000", "112653.430000", "112654.430000", "112655.430000", "112656.430000", "112657.430000", "112658.430000", "112659.430000", "112700.430000", "112701.430000", "112702.430000", "112703.430000", "112704.430000", "112705.430000", "112706.430000", "112707.430000", "112708.430000", "112709.430000", "112710.430000", "112711.430000", "112712.430000", "112713.430000", "112714.430000", "112715.430000", "112716.430000", "112717.430000", "112718.430000", "112719.430000", "112720.430000", "112721.430000", "112722.430000", "112723.430000", "112724.430000", "112725.430000", "112726.430000", "112727.430000", "112728.430000"],
      "ContentTime": ["112405.655000", "112405.659000", "112405.675000", "112405.678000", "112405.681000", "112405.684000", "112405.699000", "112405.701000", "112405.704000", "112405.707000", "112405.710000", "112405.713000", "112405.716000", "112405.723000", "112405.725000", "112425.624000", "112425.627000", "112425.630000", "112425.633000", "112425.636000", "112425.638000", "112425.641000", "112425.644000", "112425.647000", "112425.650000", "112425.653000", "112425.656000", "112425.659000", "112425.662000", "112425.665000", "112425.668000", "112425.671000", "112425.674000", "112425.677000", "112425.680000", "112425.688000", "112425.691000", "112425.694000", "112425.697000", "112425.700000", "112425.702000", "112425.705000", "112425.708000", "112445.624000", "112445.627000", "112445.630000", "112445.633000", "112445.636000", "112445.638000", "112445.641000", "112445.644000", "112445.651000", "112445.654000", "112445.657000", "112445.661000", "112445.664000", "112445.667000", "112445.670000", "112445.673000", "112445.676000", "112445.679000", "112445.682000", "112445.685000", "112445.688000", "112445.690000", "112445.693000", "112445.696000", "112445.699000", "112445.702000", "112445.705000", "112445.708000", "112505.623000", "112505.626000", "112505.644000", "112505.647000", "112505.656000", "112505.659000", "112505.662000", "112505.665000", "112505.668000", "112505.671000", "112505.674000", "112505.676000", "112505.679000", "112505.682000", "112505.685000", "112505.688000", "112505.691000", "112505.694000", "112505.697000", "112505.700000", "112505.702000", "112505.705000", "112505.708000", "112505.711000", "112505.714000", "112505.717000", "112505.720000", "112505.723000", "112525.623000", "112525.626000", "112525.629000", "112525.632000", "112525.634000", "112525.637000", "112525.640000", "112525.643000", "112525.646000", "112525.649000", "112525.652000", "112525.654000", "112525.657000", "112525.661000", "112525.664000", "112525.667000", "112525.670000", "112525.673000", "112525.675000", "112525.678000", "112525.681000", "112525.684000", "112525.687000", "112525.690000", "112525.693000", "112525.696000", "112525.699000", "112525.702000", "112525.704000", "112545.623000", "112545.626000", "112545.629000", "112545.632000", "112545.635000", "112545.638000", "112545.640000", "112545.643000", "112545.646000", "112545.649000", "112545.652000", "112545.655000", "112545.658000", "112545.661000", "112545.664000", "112545.667000", "112545.670000", "112545.673000", "112545.676000", "112545.679000", "112545.682000", "112545.685000", "112545.688000", "112545.691000", "112545.693000", "112545.696000", "112545.699000", "112545.702000", "112605.623000", "112605.626000", "112605.629000", "112605.632000", "112605.635000", "112605.638000", "112605.640000", "112605.643000", "112605.646000", "112605.649000", "112605.661000", "112605.664000", "112605.667000", "112605.670000", "112605.673000", "112605.676000", "112605.678000", "112605.681000", "112605.684000", "112605.687000", "112605.690000", "112605.693000", "112605.696000", "112625.623000", "112625.626000", "112625.629000", "112625.632000", "112625.635000", "112625.637000", "112625.640000", "112625.643000", "112625.646000", "112625.649000", "112625.652000", "112625.655000", "112625.659000", "112625.662000", "112625.665000", "112625.668000", "112625.671000", "112625.674000", "112625.677000", "112625.680000", "112645.624000", "112645.627000", "112645.630000", "112645.633000", "112645.636000", "112645.639000", "112645.641000", "112645.644000", "112645.647000", "112645.650000", "112645.653000", "112645.656000", "112645.659000", "112645.662000", "112645.665000", "112645.668000", "112645.671000", "112645.674000", "112645.677000", "112645.679000", "112705.624000", "112705.627000", "112705.630000", "112705.633000", "112705.636000", "112705.639000", "112705.642000", "112705.644000", "112705.647000", "112705.650000", "112705.653000", "112705.656000", "112705.659000", "112705.663000", "112705.665000", "112705.668000", "112705.671000", "112705.674000", "112705.677000", "112705.680000", "112725.623000", "112725.626000", "112725.629000", "112725.632000", "112725.635000", "112725.637000", "112725.640000", "112725.643000", "112725.646000", "112725.649000", "112725.652000", "112725.655000", "112725.659000", "112725.662000", "112725.665000", "112725.668000", "112725.671000", "112725.674000", "112725.677000", "112725.680000", "112729.857000", "112729.871000", "112729.874000", "112729.877000", "112729.879000"],
      "InstanceCreationTime": ["112405.655000", "112405.659000", "112405.675000", "112405.678000", "112405.681000", "112405.684000", "112405.699000", "112405.701000", "112405.704000", "112405.707000", "112405.710000", "112405.713000", "112405.716000", "112405.723000", "112405.725000", "112425.624000", "112425.627000", "112425.630000", "112425.633000", "112425.636000", "112425.638000", "112425.641000", "112425.644000", "112425.647000", "112425.650000", "112425.653000", "112425.656000", "112425.659000", "112425.662000", "112425.665000", "112425.668000", "112425.671000", "112425.674000", "112425.677000", "112425.680000", "112425.688000", "112425.691000", "112425.694000", "112425.697000", "112425.700000", "112425.702000", "112425.705000", "112425.708000", "112445.624000", "112445.627000", "112445.630000", "112445.633000", "112445.636000", "112445.638000", "112445.641000", "112445.644000", "112445.651000", "112445.654000", "112445.657000", "112445.661000", "112445.664000", "112445.667000", "112445.670000", "112445.673000", "112445.676000", "112445.679000", "112445.682000", "112445.685000", "112445.688000", "112445.690000", "112445.693000", "112445.696000", "112445.699000", "112445.702000", "112445.705000", "112445.708000", "112505.623000", "112505.626000", "112505.644000", "112505.647000", "112505.656000", "112505.659000", "112505.662000", "112505.665000", "112505.668000", "112505.671000", "112505.674000", "112505.676000", "112505.679000", "112505.682000", "112505.685000", "112505.688000", "112505.691000", "112505.694000", "112505.697000", "112505.700000", "112505.702000", "112505.705000", "112505.708000", "112505.711000", "112505.714000", "112505.717000", "112505.720000", "112505.723000", "112525.623000", "112525.626000", "112525.629000", "112525.632000", "112525.634000", "112525.637000", "112525.640000", "112525.643000", "112525.646000", "112525.649000", "112525.652000", "112525.654000", "112525.657000", "112525.661000", "112525.664000", "112525.667000", "112525.670000", "112525.673000", "112525.675000", "112525.678000", "112525.681000", "112525.684000", "112525.687000", "112525.690000", "112525.693000", "112525.696000", "112525.699000", "112525.702000", "112525.704000", "112545.623000", "112545.626000", "112545.629000", "112545.632000", "112545.635000", "112545.638000", "112545.640000", "112545.643000", "112545.646000", "112545.649000", "112545.652000", "112545.655000", "112545.658000", "112545.661000", "112545.664000", "112545.667000", "112545.670000", "112545.673000", "112545.676000", "112545.679000", "112545.682000", "112545.685000", "112545.688000", "112545.691000", "112545.693000", "112545.696000", "112545.699000", "112545.702000", "112605.623000", "112605.626000", "112605.629000", "112605.632000", "112605.635000", "112605.638000", "112605.640000", "112605.643000", "112605.646000", "112605.649000", "112605.661000", "112605.664000", "112605.667000", "112605.670000", "112605.673000", "112605.676000", "112605.678000", "112605.681000", "112605.684000", "112605.687000", "112605.690000", "112605.693000", "112605.696000", "112625.623000", "112625.626000", "112625.629000", "112625.632000", "112625.635000", "112625.637000", "112625.640000", "112625.643000", "112625.646000", "112625.649000", "112625.652000", "112625.655000", "112625.659000", "112625.662000", "112625.665000", "112625.668000", "112625.671000", "112625.674000", "112625.677000", "112625.680000", "112645.624000", "112645.627000", "112645.630000", "112645.633000", "112645.636000", "112645.639000", "112645.641000", "112645.644000", "112645.647000", "112645.650000", "112645.653000", "112645.656000", "112645.659000", "112645.662000", "112645.665000", "112645.668000", "112645.671000", "112645.674000", "112645.677000", "112645.679000", "112705.624000", "112705.627000", "112705.630000", "112705.633000", "112705.636000", "112705.639000", "112705.642000", "112705.644000", "112705.647000", "112705.650000", "112705.653000", "112705.656000", "112705.659000", "112705.663000", "112705.665000", "112705.668000", "112705.671000", "112705.674000", "112705.677000", "112705.680000", "112725.623000", "112725.626000", "112725.629000", "112725.632000", "112725.635000", "112725.637000", "112725.640000", "112725.643000", "112725.646000", "112725.649000", "112725.652000", "112725.655000", "112725.659000", "112725.662000", "112725.665000", "112725.668000", "112725.671000", "112725.674000", "112725.677000", "112725.680000", "112729.857000", "112729.871000", "112729.874000", "112729.877000", "112729.879000"],
      "InstanceNumber": [1, 2, 3, 4, 5, 6, 7, 8, 9, 10, 11, 12, 13, 14, 15, 16, 17, 18, 19, 20, 21, 22, 23, 24, 25, 26, 27, 28, 29, 30, 31, 32, 33, 34, 35, 36, 37, 38, 39, 40, 41, 42, 43, 44, 45, 46, 47, 48, 49, 50, 51, 52, 53, 54, 55, 56, 57, 58, 59, 60, 61, 62, 63, 64, 65, 66, 67, 68, 69, 70, 71, 72, 73, 74, 75, 76, 77, 78, 79, 80, 81, 82, 83, 84, 85, 86, 87, 88, 89, 90, 91, 92, 93, 94, 95, 96, 97, 98, 99, 100, 101, 102, 103, 104, 105, 106, 107, 108, 109, 110, 111, 112, 113, 114, 115, 116, 117, 118, 119, 120, 121, 122, 123, 124, 125, 126, 127, 128, 129, 130, 131, 132, 133, 134, 135, 136, 137, 138, 139, 140, 141, 142, 143, 144, 145, 146, 147, 148, 149, 150, 151, 152, 153, 154, 155, 156, 157, 158, 159, 160, 161, 162, 163, 164, 165, 166, 167, 168, 169, 170, 171, 172, 173, 174, 175, 176, 177, 178, 179, 180, 181, 182, 183, 184, 185, 186, 187, 188, 189, 190, 191, 192, 193, 194, 195, 196, 197, 198, 199, 200, 201, 202, 203, 204, 205, 206, 207, 208, 209, 210, 211, 212, 213, 214, 215, 216, 217, 218, 219, 220, 221, 222, 223, 224, 225, 226, 227, 228, 229, 230, 231, 232, 233, 234, 235, 236, 237, 238, 239, 240, 241, 242, 243, 244, 245, 246, 247, 248, 249, 250, 251, 252, 253, 254, 255, 256, 257, 258, 259, 260, 261, 262, 263, 264],
      "LargestImagePixelValue": [35755, 34888, 34391, 34745, 34573, 34794, 34565, 34415, 34848, 34070, 33761, 34576, 34429, 34418, 34313, 34535, 34816, 34414, 34041, 33819, 34645, 34261, 33717, 34175, 34398, 34149, 34235, 34209, 34380, 34222, 33972, 34339, 34075, 33848, 34026, 34145, 34012, 34239, 34161, 34490, 34335, 34253, 34202, 34351, 34286, 34426, 34348, 34443, 34526, 34196, 33682, 34132, 34044, 34218, 34069, 33916, 34276, 33760, 33741, 33791, 34070, 33821, 33820, 33548, 33777, 33937, 34045, 34768, 33792, 33691, 33972, 34583, 34434, 34358, 33702, 34388, 34211, 34142, 34137, 34090, 34872, 34506, 34327, 34548, 34416, 34827, 34570, 34286, 34834, 34766, 34701, 34525, 35355, 34830, 35034, 34450, 34668, 34694, 34178, 34101, 34532, 34895, 34888, 34459, 34086, 34610, 34847, 34822, 34836, 34919, 34638, 34395, 33844, 34473, 34463, 34844, 34633, 34839, 35030, 34954, 34884, 34657, 34902, 34331, 34276, 34636, 34459, 33961, 34494, 34342, 34566, 33889, 34711, 34888, 34464, 34297, 34445, 34487, 34499, 34531, 34405, 34727, 34600, 34796, 34486, 35049, 34637, 34381, 34221, 34827, 34570, 34463, 34577, 34837, 34386, 34792, 34457, 34474, 34510, 34651, 34466, 34131, 34281, 34295, 34028, 34326, 34706, 34505, 34176, 34205, 34522, 34239, 34392, 34664, 34363, 34503, 34397, 34692, 34510, 34777, 33924, 33974, 34127, 34398, 34144, 34471, 34634, 34345, 34423, 34574, 34671, 34324, 34945, 35198, 34770, 34744, 34822, 34468, 34835, 34794, 34775, 34828, 34815, 34882, 34798, 35049, 34871, 34822, 34394, 34630, 34494, 34759, 34269, 35226, 35475, 35046, 35232, 35470, 35484, 34967, 35508, 35726, 35269, 35484, 35322, 34999, 35095, 34485, 34786, 34807, 35423, 34700, 34244, 34859, 34691, 34754, 34755, 34905, 35245, 34828, 34697, 34371, 34593, 34951, 34969, 34498, 34923, 34850, 34849, 34356, 34623, 34686, 35013, 34955, 34348, 34438, 35138, 34870, 34900, 34542, 34920, 34777, 35087, 34512],
      "WindowCenter": [9608.0, 9571.0, 9537.0, 9530.0, 9512.0, 9502.0, 9493.0, 9493.0, 9499.0, 9488.0, 9489.0, 9499.0, 9494.0, 9494.0, 9495.0, 9501.0, 9508.0, 9503.0, 9498.0, 9505.0, 9520.0, 9522.0, 9509.0, 9521.0, 9522.0, 9522.0, 9523.0, 9530.0, 9532.0, 9525.0, 9517.0, 9521.0, 9515.0, 9516.0, 9514.0, 9514.0, 9523.0, 9532.0, 9532.0, 9537.0, 9530.0, 9522.0, 9514.0, 9514.0, 9522.0, 9529.0, 9531.0, 9537.0, 9531.0, 9522.0, 9508.0, 9521.0, 9516.0, 9523.0, 9518.0, 9518.0, 9522.0, 9509.0, 9507.0, 9507.0, 9507.0, 9515.0, 9526.0, 9521.0, 9526.0, 9518.0, 9510.0, 9526.0, 9515.0, 9509.0, 9506.0, 9520.0, 9527.0, 9522.0, 9509.0, 9515.0, 9514.0, 9513.0, 9506.0, 9511.0, 9526.0, 9528.0, 9529.0, 9530.0, 9522.0, 9520.0, 9511.0, 9511.0, 9525.0, 9535.0, 9530.0, 9537.0, 9542.0, 9528.0, 9525.0, 9511.0, 9509.0, 9502.0, 9502.0, 9495.0, 9508.0, 9524.0, 9532.0, 9527.0, 9521.0, 9521.0, 9528.0, 9534.0, 9536.0, 9535.0, 9529.0, 9521.0, 9518.0, 9530.0, 9530.0, 9536.0, 9538.0, 9544.0, 9546.0, 9546.0, 9546.0, 9538.0, 9531.0, 9524.0, 9530.0, 9531.0, 9530.0, 9510.0, 9521.0, 9522.0, 9537.0, 9526.0, 9531.0, 9537.0, 9530.0, 9516.0, 9521.0, 9520.0, 9519.0, 9519.0, 9520.0, 9533.0, 9529.0, 9537.0, 9537.0, 9550.0, 9530.0, 9522.0, 9513.0, 9518.0, 9512.0, 9519.0, 9529.0, 9552.0, 9544.0, 9554.0, 9539.0, 9531.0, 9522.0, 9518.0, 9510.0, 9504.0, 9510.0, 9513.0, 9516.0, 9531.0, 9538.0, 9538.0, 9523.0, 9513.0, 9511.0, 9512.0, 9519.0, 9528.0, 9530.0, 9532.0, 9532.0, 9532.0, 9524.0, 9536.0, 9519.0, 9527.0, 9533.0, 9533.0, 9533.0, 9532.0, 9529.0, 9515.0, 9521.0, 9527.0, 9521.0, 9515.0, 9532.0, 9535.0, 9546.0, 9553.0, 9548.0, 9547.0, 9545.0, 9537.0, 9543.0, 9543.0, 9544.0, 9545.0, 9544.0, 9544.0, 9538.0, 9543.0, 9529.0, 9538.0, 9538.0, 9536.0, 9531.0, 9543.0, 9548.0, 9535.0, 9533.0, 9532.0, 9531.0, 9526.0, 9538.0, 9540.0, 9534.0, 9540.0, 9542.0, 9529.0, 9533.0, 9521.0, 9528.0, 9528.0, 9540.0, 9530.0, 9524.0, 9536.0, 9529.0, 9529.0, 9535.0, 9529.0, 9541.0, 9536.0, 9529.0, 9523.0, 9521.0, 9519.0, 9518.0, 9512.0, 9517.0, 9519.0, 9535.0, 9533.0, 9540.0, 9539.0, 9539.0, 9530.0, 9516.0, 9515.0, 9533.0, 9526.0, 9520.0, 9520.0, 9521.0, 9528.0, 9533.0, 9521.0],
      "WindowWidth": [20442.0, 20346.0, 20263.0, 20238.0, 20198.0, 20175.0, 20155.0, 20156.0, 20168.0, 20154.0, 20153.0, 20168.0, 20161.0, 20164.0, 20165.0, 20175.0, 20190.0, 20182.0, 20174.0, 20189.0, 20221.0, 20225.0, 20202.0, 20219.0, 20224.0, 20224.0, 20227.0, 20242.0, 20248.0, 20237.0, 20217.0, 20221.0, 20211.0, 20214.0, 20208.0, 20206.0, 20228.0, 20247.0, 20249.0, 20253.0, 20241.0, 20225.0, 20208.0, 20209.0, 20226.0, 20241.0, 20245.0, 20256.0, 20243.0, 20223.0, 20198.0, 20221.0, 20214.0, 20226.0, 20219.0, 20219.0, 20224.0, 20200.0, 20196.0, 20196.0, 20198.0, 20214.0, 20237.0, 20231.0, 20237.0, 20218.0, 20203.0, 20229.0, 20211.0, 20204.0, 20191.0, 20218.0, 20232.0, 20223.0, 20201.0, 20209.0, 20208.0, 20205.0, 20190.0, 20197.0, 20229.0, 20237.0, 20237.0, 20239.0, 20225.0, 20218.0, 20199.0, 20200.0, 20226.0, 20247.0, 20242.0, 20254.0, 20260.0, 20231.0, 20221.0, 20193.0, 20189.0, 20177.0, 20178.0, 20165.0, 20189.0, 20221.0, 20238.0, 20232.0, 20220.0, 20221.0, 20233.0, 20247.0, 20249.0, 20250.0, 20239.0, 20224.0, 20220.0, 20241.0, 20243.0, 20251.0, 20258.0, 20269.0, 20273.0, 20273.0, 20273.0, 20259.0, 20243.0, 20230.0, 20241.0, 20243.0, 20237.0, 20203.0, 20220.0, 20226.0, 20256.0, 20236.0, 20245.0, 20252.0, 20239.0, 20210.0, 20219.0, 20215.0, 20215.0, 20216.0, 20218.0, 20243.0, 20238.0, 20253.0, 20253.0, 20274.0, 20238.0, 20221.0, 20203.0, 20210.0, 20200.0, 20217.0, 20241.0, 20285.0, 20277.0, 20290.0, 20259.0, 20241.0, 20220.0, 20209.0, 20192.0, 20182.0, 20194.0, 20203.0, 20214.0, 20243.0, 20258.0, 20255.0, 20225.0, 20203.0, 20197.0, 20200.0, 20214.0, 20235.0, 20242.0, 20247.0, 20246.0, 20244.0, 20229.0, 20249.0, 20223.0, 20238.0, 20249.0, 20249.0, 20246.0, 20242.0, 20234.0, 20210.0, 20219.0, 20229.0, 20219.0, 20210.0, 20238.0, 20247.0, 20273.0, 20288.0, 20281.0, 20277.0, 20270.0, 20255.0, 20265.0, 20265.0, 20268.0, 20271.0, 20267.0, 20268.0, 20256.0, 20262.0, 20237.0, 20255.0, 20254.0, 20249.0, 20238.0, 20259.0, 20269.0, 20245.0, 20240.0, 20237.0, 20234.0, 20226.0, 20248.0, 20251.0, 20240.0, 20251.0, 20256.0, 20234.0, 20237.0, 20217.0, 20231.0, 20232.0, 20251.0, 20239.0, 20227.0, 20247.0, 20235.0, 20232.0, 20241.0, 20233.0, 20255.0, 20246.0, 20233.0, 20222.0, 20216.0, 20212.0, 20209.0, 20198.0, 20206.0, 20213.0, 20247.0, 20249.0, 20263.0, 20257.0, 20256.0, 20236.0, 20210.0, 20205.0, 20238.0, 20225.0, 20213.0, 20214.0, 20216.0, 20230.0, 20238.0, 20216.0]
    },
    "slices": {}
  },
  "NumberOfVolumes": 264
}