{
  "AcquisitionMatrixPE": 104,
  "AcquisitionNumber": 1,
  "AcquisitionTime": "11:37:26.272500",
  "BandwidthPerPixelPhaseEncode": 16.578,
  "BaseResolution": 104,
  "BodyPartExamined": "BRAIN",
  "ConsistencyInfo": "N4_VE11C_LATEST_20160120",
  "ConversionSoftware": "dcm2niix",
  "ConversionSoftwareVersion": "v1.0.20190410  GCC6.3.0",
  "DerivedVendorReportedEchoSpacing": 0.000580009,
  "DeviceSerialNumber": "166018",
  "DwellTime": 2.1e-06,
  "EchoTime": 0.037,
  "EchoTrainLength": 104,
  "EffectiveEchoSpacing": 0.000580009,
  "FlipAngle": 68,
  "ImageComments": "Unaliased_MB6_PE3_LB",
  "ImageOrientationPatientDICOM": [0.999806, -0.017416, -0.00914958, 0.0150081, 0.975913, -0.217641],
  "ImageType": [
    "ORIGINAL",
    "PRIMARY",
    "M",
    "MB",
    "ND",
    "MOSAIC"
],
  "ImagingFrequency": 123.191,
  "InPlanePhaseEncodingDirectionDICOM": "COL",
  "InstitutionAddress": "Washington_Place_6_NYC_NYC_US_10003",
  "InstitutionName": "NYU_Center_for_Brain_Imaging",
  "InstitutionalDepartmentName": "Department",
  "MRAcquisitionType": "2D",
  "MagneticFieldStrength": 3,
  "Manufacturer": "Siemens",
  "ManufacturersModelName": "Prisma",
  "Modality": "MR",
  "MultibandAccelerationFactor": 6,
  "PartialFourier": 1,
  "PatientPosition": "HFS",
  "PercentPhaseFOV": 100,
  "PhaseEncodingDirection": "j",
  "PhaseEncodingSteps": 104,
  "PhaseResolution": 1,
  "PixelBandwidth": 2290,
  "ProcedureStepDescription": "Investigators_Winawer",
  "ProtocolName": "task-sfprescaled_cmrr_mbepi_s6_2mm_66sl_PA_TR1.0",
  "PulseSequenceDetails": "%CustomerSeq%_cmrr_mbep2d_bold",
  "ReceiveCoilActiveElements": "HC1-7",
  "ReceiveCoilName": "HeadNeck_64",
  "ReconMatrixPE": 104,
  "RepetitionTime": 1,
  "SAR": 0.0710762,
  "ScanOptions": "FS",
  "ScanningSequence": "EP",
  "SequenceName": "epfid2d1_104",
  "SequenceVariant": "SK_SS",
  "SeriesDescription": "task-sfprescaled_cmrr_mbepi_s6_2mm_66sl_PA_TR1.0",
  "SeriesNumber": 16,
  "ShimSetting": [279, -12606, -8449, 336, -4, -238, -109, -14],
  "SliceThickness": 2,
  "SliceTiming": [0, 0.535, 0.09, 0.625, 0.1775, 0.7125, 0.2675, 0.8025, 0.3575, 0.8925, 0.445, 0, 0.535, 0.09, 0.625, 0.1775, 0.7125, 0.2675, 0.8025, 0.3575, 0.8925, 0.445, 0, 0.535, 0.09, 0.625, 0.1775, 0.7125, 0.2675, 0.8025, 0.3575, 0.8925, 0.445, 0, 0.535, 0.09, 0.625, 0.1775, 0.7125, 0.2675, 0.8025, 0.3575, 0.8925, 0.445, 0, 0.535, 0.09, 0.625, 0.1775, 0.7125, 0.2675, 0.8025, 0.3575, 0.8925, 0.445, 0, 0.535, 0.09, 0.625, 0.1775, 0.7125, 0.2675, 0.8025, 0.3575, 0.8925, 0.445],
  "SoftwareVersions": "syngo_MR_E11",
  "SpacingBetweenSlices": 2,
  "StationName": "AWP166018",
  "TaskName": "sfprescaled",
  "TotalReadoutTime": 0.0597409,
  "TxRefAmp": 245.7,
  "WipMemBlock": "72863f80-38b2-4e52-a741-2bdc88044504||Sequence: R016 ve11c/master r/8780670; Nov 27 2017 15:05:12 by eja",
  "dcmmeta_affine": [
    [-1.9996129274368286, 0.030016222968697548, -0.025439279153943062, 106.42506408691406],
    [0.03483204543590546, 1.9518269300460815, -0.4349231719970703, -69.68172454833984],
    [-0.01829916052520275, 0.43528205156326294, 1.9519720077514648, -66.03307342529297],
    [0.0, 0.0, 0.0, 1.0]
],
  "dcmmeta_reorient_transform": [
    [0.0, -1.0, 0.0, 103.0],
    [1.0, 0.0, 0.0, 0.0],
    [0.0, 0.0, 1.0, 0.0],
    [0.0, 0.0, 0.0, 1.0]
],
  "dcmmeta_shape": [104, 104, 66, 264],
  "dcmmeta_slice_dim": 2,
  "dcmmeta_version": 0.6,
  "global": {
    "const": {
      "AccessionNumber": "k5rbL6p1",
      "AcquisitionMatrix": [104, 0, 0, 104],
      "AngioFlag": "N",
      "BitsAllocated": 16,
      "BitsStored": 16,
      "BodyPartExamined": "BRAIN",
      "Columns": 936,
      "EchoNumbers": 1,
      "EchoTime": 37.0,
      "EchoTrainLength": 104,
      "FlipAngle": 68.0,
      "HighBit": 15,
      "ImageOrientationPatient": [0.99980646495223, -0.0174160221162, -0.0091495799559, 0.0150081115578, 0.97591349025416, -0.2176410258371],
      "ImagePositionPatient": [-953.84246633373, -928.82634822519, 167.4907630342],
      "ImageType": [
        "ORIGINAL",
        "PRIMARY",
        "M",
        "MB",
        "ND",
        "MOSAIC"
],
      "ImagedNucleus": "1H",
      "ImagingFrequency": 123.190714,
      "InPlanePhaseEncodingDirection": "COL",
      "MRAcquisitionType": "2D",
      "MagneticFieldStrength": 3.0,
      "Manufacturer": "SIEMENS",
      "ManufacturerModelName": "Prisma",
      "Modality": "MR",
      "NumberOfAverages": 1.0,
      "NumberOfPhaseEncodingSteps": 104,
      "PercentPhaseFieldOfView": 100.0,
      "PercentSampling": 100.0,
      "PerformedProcedureStepStartTime": "111304.219000",
      "PhotometricInterpretation": "MONOCHROME2",
      "PixelBandwidth": 2290.0,
      "PixelRepresentation": 0,
      "PixelSpacing": [2.0, 2.0],
      "ProtocolName": "task-sfprescaled_cmrr_mbepi_s6_2mm_66sl_PA_TR1.0",
      "RepetitionTime": 1000.0,
      "Rows": 936,
      "SAR": 0.07107616936717,
      "SamplesPerPixel": 1,
      "ScanOptions": "FS",
      "ScanningSequence": "EP",
      "SequenceName": "epfid2d1_104",
      "SequenceVariant": [
        "SK",
        "SS"
],
      "SeriesDescription": "task-sfprescaled_cmrr_mbepi_s6_2mm_66sl_PA_TR1.0",
      "SeriesNumber": 16,
      "SeriesTime": "113845.657000",
      "SliceLocation": -50.647944165855,
      "SliceThickness": 2.0,
      "SmallestImagePixelValue": 0,
      "SoftwareVersions": "syngo MR E11",
      "SpacingBetweenSlices": 1.9999999674386,
      "SpecificCharacterSet": "ISO_IR 100",
      "StudyID": "1",
      "StudyTime": "111304.154000",
      "TransmitCoilName": "Body",
      "VariableFlipAngleFlag": "N",
      "WindowCenterWidthExplanation": "Algo1",
      "dBdt": 0.0},
    "slices": {}
  },
  "time": {
    "samples": {
      "AcquisitionNumber": [1, 2, 3, 4, 5, 6, 7, 8, 9, 10, 11, 12, 13, 14, 15, 16, 17, 18, 19, 20, 21, 22, 23, 24, 25, 26, 27, 28, 29, 30, 31, 32, 33, 34, 35, 36, 37, 38, 39, 40, 41, 42, 43, 44, 45, 46, 47, 48, 49, 50, 51, 52, 53, 54, 55, 56, 57, 58, 59, 60, 61, 62, 63, 64, 65, 66, 67, 68, 69, 70, 71, 72, 73, 74, 75, 76, 77, 78, 79, 80, 81, 82, 83, 84, 85, 86, 87, 88, 89, 90, 91, 92, 93, 94, 95, 96, 97, 98, 99, 100, 101, 102, 103, 104, 105, 106, 107, 108, 109, 110, 111, 112, 113, 114, 115, 116, 117, 118, 119, 120, 121, 122, 123, 124, 125, 126, 127, 128, 129, 130, 131, 132, 133, 134, 135, 136, 137, 138, 139, 140, 141, 142, 143, 144, 145, 146, 147, 148, 149, 150, 151, 152, 153, 154, 155, 156, 157, 158, 159, 160, 161, 162, 163, 164, 165, 166, 167, 168, 169, 170, 171, 172, 173, 174, 175, 176, 177, 178, 179, 180, 181, 182, 183, 184, 185, 186, 187, 188, 189, 190, 191, 192, 193, 194, 195, 196, 197, 198, 199, 200, 201, 202, 203, 204, 205, 206, 207, 208, 209, 210, 211, 212, 213, 214, 215, 216, 217, 218, 219, 220, 221, 222, 223, 224, 225, 226, 227, 228, 229, 230, 231, 232, 233, 234, 235, 236, 237, 238, 239, 240, 241, 242, 243, 244, 245, 246, 247, 248, 249, 250, 251, 252, 253, 254, 255, 256, 257, 258, 259, 260, 261, 262, 263, 264],
      "AcquisitionTime": ["113726.272500", "113727.272500", "113728.272500", "113729.272500", "113730.272500", "113731.272500", "113732.272500", "113733.272500", "113734.272500", "113735.272500", "113736.272500", "113737.272500", "113738.272500", "113739.272500", "113740.272500", "113741.272500", "113742.272500", "113743.272500", "113744.272500", "113745.272500", "113746.272500", "113747.272500", "113748.272500", "113749.272500", "113750.272500", "113751.272500", "113752.272500", "113753.272500", "113754.272500", "113755.272500", "113756.272500", "113757.272500", "113758.272500", "113759.272500", "113800.272500", "113801.272500", "113802.272500", "113803.272500", "113804.272500", "113805.272500", "113806.272500", "113807.272500", "113808.272500", "113809.272500", "113810.272500", "113811.272500", "113812.272500", "113813.272500", "113814.272500", "113815.272500", "113816.272500", "113817.272500", "113818.272500", "113819.272500", "113820.272500", "113821.272500", "113822.272500", "113823.272500", "113824.272500", "113825.272500", "113826.272500", "113827.272500", "113828.272500", "113829.272500", "113830.272500", "113831.272500", "113832.272500", "113833.272500", "113834.272500", "113835.272500", "113836.272500", "113837.272500", "113838.272500", "113839.272500", "113840.272500", "113841.272500", "113842.272500", "113843.272500", "113844.272500", "113845.272500", "113846.272500", "113847.272500", "113848.272500", "113849.272500", "113850.272500", "113851.272500", "113852.272500", "113853.272500", "113854.272500", "113855.272500", "113856.272500", "113857.272500", "113858.272500", "113859.272500", "113900.272500", "113901.272500", "113902.272500", "113903.272500", "113904.272500", "113905.272500", "113906.272500", "113907.272500", "113908.272500", "113909.272500", "113910.272500", "113911.272500", "113912.272500", "113913.272500", "113914.272500", "113915.272500", "113916.272500", "113917.272500", "113918.272500", "113919.272500", "113920.272500", "113921.272500", "113922.272500", "113923.272500", "113924.272500", "113925.272500", "113926.272500", "113927.272500", "113928.272500", "113929.272500", "113930.272500", "113931.272500", "113932.272500", "113933.272500", "113934.272500", "113935.272500", "113936.272500", "113937.272500", "113938.272500", "113939.272500", "113940.272500", "113941.272500", "113942.272500", "113943.272500", "113944.272500", "113945.272500", "113946.272500", "113947.272500", "113948.272500", "113949.272500", "113950.272500", "113951.272500", "113952.272500", "113953.272500", "113954.272500", "113955.272500", "113956.272500", "113957.272500", "113958.272500", "113959.272500", "114000.272500", "114001.272500", "114002.272500", "114003.272500", "114004.272500", "114005.272500", "114006.272500", "114007.272500", "114008.272500", "114009.272500", "114010.272500", "114011.272500", "114012.272500", "114013.272500", "114014.272500", "114015.272500", "114016.272500", "114017.272500", "114018.272500", "114019.272500", "114020.272500", "114021.272500", "114022.272500", "114023.272500", "114024.272500", "114025.272500", "114026.272500", "114027.272500", "114028.272500", "114029.272500", "114030.272500", "114031.272500", "114032.272500", "114033.272500", "114034.272500", "114035.272500", "114036.272500", "114037.272500", "114038.272500", "114039.272500", "114040.272500", "114041.272500", "114042.272500", "114043.272500", "114044.272500", "114045.272500", "114046.272500", "114047.272500", "114048.272500", "114049.272500", "114050.272500", "114051.272500", "114052.272500", "114053.272500", "114054.272500", "114055.272500", "114056.272500", "114057.272500", "114058.272500", "114059.272500", "114100.272500", "114101.272500", "114102.272500", "114103.272500", "114104.272500", "114105.272500", "114106.272500", "114107.272500", "114108.272500", "114109.272500", "114110.272500", "114111.272500", "114112.272500", "114113.272500", "114114.272500", "114115.272500", "114116.272500", "114117.272500", "114118.272500", "114119.272500", "114120.272500", "114121.272500", "114122.272500", "114123.272500", "114124.272500", "114125.272500", "114126.272500", "114127.272500", "114128.272500", "114129.272500", "114130.272500", "114131.272500", "114132.272500", "114133.272500", "114134.272500", "114135.272500", "114136.272500", "114137.272500", "114138.272500", "114139.272500", "114140.272500", "114141.272500", "114142.272500", "114143.272500", "114144.272500", "114145.272500", "114146.272500", "114147.272500", "114148.272500", "114149.272500"],
      "ContentTime": ["113845.660000", "113845.664000", "113845.667000", "113845.669000", "113845.672000", "113845.675000", "113845.678000", "113845.681000", "113845.684000", "113845.687000", "113845.690000", "113845.693000", "113845.695000", "113845.698000", "113845.701000", "113845.704000", "113845.707000", "113845.710000", "113845.721000", "113845.724000", "113845.727000", "113845.730000", "113845.733000", "113845.736000", "113845.738000", "113845.741000", "113845.744000", "113845.747000", "113845.750000", "113845.753000", "113845.756000", "113845.759000", "113845.762000", "113845.765000", "113845.767000", "113845.770000", "113845.773000", "113845.776000", "113845.779000", "113845.782000", "113845.785000", "113905.623000", "113905.626000", "113905.629000", "113905.632000", "113905.635000", "113905.638000", "113905.640000", "113905.643000", "113905.646000", "113905.654000", "113905.657000", "113905.660000", "113905.662000", "113905.665000", "113905.668000", "113905.671000", "113905.674000", "113905.677000", "113905.680000", "113905.683000", "113905.685000", "113905.688000", "113905.691000", "113905.694000", "113905.697000", "113905.700000", "113905.703000", "113905.706000", "113925.623000", "113925.626000", "113925.629000", "113925.632000", "113925.635000", "113925.637000", "113925.640000", "113925.643000", "113925.646000", "113925.649000", "113925.652000", "113925.655000", "113925.658000", "113925.660000", "113925.663000", "113925.666000", "113925.669000", "113925.672000", "113925.675000", "113925.678000", "113925.681000", "113925.683000", "113925.686000", "113925.689000", "113925.692000", "113925.695000", "113925.698000", "113925.701000", "113945.623000", "113945.626000", "113945.629000", "113945.632000", "113945.635000", "113945.637000", "113945.640000", "113945.643000", "113945.646000", "113945.649000", "113945.652000", "113945.655000", "113945.658000", "113945.661000", "113945.663000", "113945.666000", "113945.669000", "113945.672000", "113945.675000", "113945.678000", "113945.681000", "113945.684000", "113945.686000", "113945.689000", "113945.692000", "113945.695000", "113945.698000", "113945.701000", "113945.704000", "114005.623000", "114005.626000", "114005.629000", "114005.632000", "114005.634000", "114005.637000", "114005.640000", "114005.643000", "114005.646000", "114005.649000", "114005.652000", "114005.655000", "114005.657000", "114005.660000", "114005.663000", "114005.666000", "114005.669000", "114005.672000", "114005.675000", "114005.678000", "114005.681000", "114005.683000", "114005.686000", "114005.689000", "114005.692000", "114005.695000", "114005.698000", "114005.701000", "114005.704000", "114025.624000", "114025.636000", "114025.638000", "114025.641000", "114025.644000", "114025.647000", "114025.650000", "114025.653000", "114025.656000", "114025.659000", "114025.661000", "114025.664000", "114025.667000", "114025.670000", "114025.673000", "114025.676000", "114025.679000", "114025.682000", "114025.685000", "114025.688000", "114025.690000", "114025.693000", "114025.696000", "114045.624000", "114045.627000", "114045.630000", "114045.633000", "114045.636000", "114045.638000", "114045.641000", "114045.656000", "114045.659000", "114045.662000", "114045.665000", "114045.668000", "114045.671000", "114045.674000", "114045.676000", "114045.679000", "114045.682000", "114045.685000", "114045.688000", "114045.691000", "114105.624000", "114105.633000", "114105.636000", "114105.638000", "114105.641000", "114105.644000", "114105.647000", "114105.650000", "114105.653000", "114105.656000", "114105.659000", "114105.661000", "114105.664000", "114105.667000", "114105.670000", "114105.673000", "114105.676000", "114105.679000", "114105.682000", "114105.685000", "114125.623000", "114125.626000", "114125.629000", "114125.632000", "114125.635000", "114125.638000", "114125.641000", "114125.644000", "114125.646000", "114125.649000", "114125.652000", "114125.655000", "114125.658000", "114125.661000", "114125.664000", "114125.667000", "114125.669000", "114125.672000", "114125.675000", "114125.678000", "114145.623000", "114145.626000", "114145.629000", "114145.632000", "114145.635000", "114145.638000", "114145.640000", "114145.643000", "114145.646000", "114145.649000", "114145.652000", "114145.655000", "114145.658000", "114145.661000", "114145.664000", "114145.666000", "114145.669000", "114145.672000", "114145.675000", "114145.678000", "114151.102000", "114151.105000", "114151.108000", "114151.111000", "114151.114000", "114151.117000"],
      "InstanceCreationTime": ["113845.660000", "113845.664000", "113845.667000", "113845.669000", "113845.672000", "113845.675000", "113845.678000", "113845.681000", "113845.684000", "113845.687000", "113845.690000", "113845.693000", "113845.695000", "113845.698000", "113845.701000", "113845.704000", "113845.707000", "113845.710000", "113845.721000", "113845.724000", "113845.727000", "113845.730000", "113845.733000", "113845.736000", "113845.738000", "113845.741000", "113845.744000", "113845.747000", "113845.750000", "113845.753000", "113845.756000", "113845.759000", "113845.762000", "113845.765000", "113845.767000", "113845.770000", "113845.773000", "113845.776000", "113845.779000", "113845.782000", "113845.785000", "113905.623000", "113905.626000", "113905.629000", "113905.632000", "113905.635000", "113905.638000", "113905.640000", "113905.643000", "113905.646000", "113905.654000", "113905.657000", "113905.660000", "113905.662000", "113905.665000", "113905.668000", "113905.671000", "113905.674000", "113905.677000", "113905.680000", "113905.683000", "113905.685000", "113905.688000", "113905.691000", "113905.694000", "113905.697000", "113905.700000", "113905.703000", "113905.706000", "113925.623000", "113925.626000", "113925.629000", "113925.632000", "113925.635000", "113925.637000", "113925.640000", "113925.643000", "113925.646000", "113925.649000", "113925.652000", "113925.655000", "113925.658000", "113925.660000", "113925.663000", "113925.666000", "113925.669000", "113925.672000", "113925.675000", "113925.678000", "113925.681000", "113925.683000", "113925.686000", "113925.689000", "113925.692000", "113925.695000", "113925.698000", "113925.701000", "113945.623000", "113945.626000", "113945.629000", "113945.632000", "113945.635000", "113945.637000", "113945.640000", "113945.643000", "113945.646000", "113945.649000", "113945.652000", "113945.655000", "113945.658000", "113945.661000", "113945.663000", "113945.666000", "113945.669000", "113945.672000", "113945.675000", "113945.678000", "113945.681000", "113945.684000", "113945.686000", "113945.689000", "113945.692000", "113945.695000", "113945.698000", "113945.701000", "113945.704000", "114005.623000", "114005.626000", "114005.629000", "114005.632000", "114005.634000", "114005.637000", "114005.640000", "114005.643000", "114005.646000", "114005.649000", "114005.652000", "114005.655000", "114005.657000", "114005.660000", "114005.663000", "114005.666000", "114005.669000", "114005.672000", "114005.675000", "114005.678000", "114005.681000", "114005.683000", "114005.686000", "114005.689000", "114005.692000", "114005.695000", "114005.698000", "114005.701000", "114005.704000", "114025.624000", "114025.636000", "114025.638000", "114025.641000", "114025.644000", "114025.647000", "114025.650000", "114025.653000", "114025.656000", "114025.659000", "114025.661000", "114025.664000", "114025.667000", "114025.670000", "114025.673000", "114025.676000", "114025.679000", "114025.682000", "114025.685000", "114025.688000", "114025.690000", "114025.693000", "114025.696000", "114045.624000", "114045.627000", "114045.630000", "114045.633000", "114045.636000", "114045.638000", "114045.641000", "114045.656000", "114045.659000", "114045.662000", "114045.665000", "114045.668000", "114045.671000", "114045.674000", "114045.676000", "114045.679000", "114045.682000", "114045.685000", "114045.688000", "114045.691000", "114105.624000", "114105.633000", "114105.636000", "114105.638000", "114105.641000", "114105.644000", "114105.647000", "114105.650000", "114105.653000", "114105.656000", "114105.659000", "114105.661000", "114105.664000", "114105.667000", "114105.670000", "114105.673000", "114105.676000", "114105.679000", "114105.682000", "114105.685000", "114125.623000", "114125.626000", "114125.629000", "114125.632000", "114125.635000", "114125.638000", "114125.641000", "114125.644000", "114125.646000", "114125.649000", "114125.652000", "114125.655000", "114125.658000", "114125.661000", "114125.664000", "114125.667000", "114125.669000", "114125.672000", "114125.675000", "114125.678000", "114145.623000", "114145.626000", "114145.629000", "114145.632000", "114145.635000", "114145.638000", "114145.640000", "114145.643000", "114145.646000", "114145.649000", "114145.652000", "114145.655000", "114145.658000", "114145.661000", "114145.664000", "114145.666000", "114145.669000", "114145.672000", "114145.675000", "114145.678000", "114151.102000", "114151.105000", "114151.108000", "114151.111000", "114151.114000", "114151.117000"],
      "InstanceNumber": [1, 2, 3, 4, 5, 6, 7, 8, 9, 10, 11, 12, 13, 14, 15, 16, 17, 18, 19, 20, 21, 22, 23, 24, 25, 26, 27, 28, 29, 30, 31, 32, 33, 34, 35, 36, 37, 38, 39, 40, 41, 42, 43, 44, 45, 46, 47, 48, 49, 50, 51, 52, 53, 54, 55, 56, 57, 58, 59, 60, 61, 62, 63, 64, 65, 66, 67, 68, 69, 70, 71, 72, 73, 74, 75, 76, 77, 78, 79, 80, 81, 82, 83, 84, 85, 86, 87, 88, 89, 90, 91, 92, 93, 94, 95, 96, 97, 98, 99, 100, 101, 102, 103, 104, 105, 106, 107, 108, 109, 110, 111, 112, 113, 114, 115, 116, 117, 118, 119, 120, 121, 122, 123, 124, 125, 126, 127, 128, 129, 130, 131, 132, 133, 134, 135, 136, 137, 138, 139, 140, 141, 142, 143, 144, 145, 146, 147, 148, 149, 150, 151, 152, 153, 154, 155, 156, 157, 158, 159, 160, 161, 162, 163, 164, 165, 166, 167, 168, 169, 170, 171, 172, 173, 174, 175, 176, 177, 178, 179, 180, 181, 182, 183, 184, 185, 186, 187, 188, 189, 190, 191, 192, 193, 194, 195, 196, 197, 198, 199, 200, 201, 202, 203, 204, 205, 206, 207, 208, 209, 210, 211, 212, 213, 214, 215, 216, 217, 218, 219, 220, 221, 222, 223, 224, 225, 226, 227, 228, 229, 230, 231, 232, 233, 234, 235, 236, 237, 238, 239, 240, 241, 242, 243, 244, 245, 246, 247, 248, 249, 250, 251, 252, 253, 254, 255, 256, 257, 258, 259, 260, 261, 262, 263, 264],
      "LargestImagePixelValue": [35367, 34097, 33973, 33893, 33526, 34144, 33611, 33466, 33512, 33201, 33810, 33607, 33376, 33511, 33884, 33542, 33337, 33342, 33350, 33397, 32817, 33326, 32705, 32980, 33108, 33265, 33527, 33216, 33098, 33312, 32511, 32747, 33105, 33196, 32812, 33563, 33094, 32768, 33158, 32415, 32951, 32926, 33004, 32589, 32724, 33003, 33429, 32793, 32738, 32876, 33054, 32899, 32610, 32586, 32855, 32976, 32504, 32628, 32431, 32232, 32341, 32768, 32658, 33029, 32246, 32665, 32613, 32794, 32513, 32205, 32485, 32352, 32562, 32727, 32706, 32657, 32607, 32652, 32735, 33006, 32872, 33334, 33079, 33372, 33169, 33689, 33082, 32706, 32368, 32970, 32744, 32915, 32876, 33294, 33001, 32620, 32969, 32427, 33036, 32803, 32935, 32922, 32730, 32949, 32402, 32762, 32949, 32491, 32301, 33026, 33460, 32479, 32687, 32036, 32979, 32944, 33354, 32296, 32822, 32613, 31822, 32374, 32570, 32655, 33383, 32445, 32963, 32736, 33201, 32918, 32975, 33237, 33494, 33704, 33410, 33837, 33835, 33880, 33351, 32941, 33411, 33534, 32847, 33016, 33183, 33379, 33166, 33479, 33394, 33293, 33044, 33719, 33328, 33493, 33279, 33592, 32871, 33171, 33550, 33026, 32847, 33323, 33239, 32494, 33157, 33547, 33158, 33228, 33080, 33338, 33898, 33439, 33236, 33240, 33483, 33473, 33400, 33856, 33587, 33441, 33797, 33769, 32732, 33638, 33910, 33533, 33197, 33309, 33894, 33823, 34008, 33615, 33615, 33976, 33637, 33865, 33634, 33640, 33821, 33498, 33231, 33164, 33444, 33013, 32730, 33330, 33104, 32809, 33010, 32968, 33228, 33039, 32614, 32974, 33370, 33578, 33073, 33071, 33170, 31685, 31936, 32699, 32385, 31569, 31518, 32571, 31748, 31862, 32245, 33170, 32191, 31889, 32472, 32692, 31570, 31999, 32721, 31598, 32057, 31437, 31462, 31513, 31827, 31669, 32552, 31094, 30992, 31957, 32422, 31237, 31762, 31501, 31551, 31134, 31578, 31784, 31813, 31131, 31449, 32063, 31977, 31102, 31563, 31702],
      "WindowCenter": [9480.0, 9466.0, 9465.0, 9484.0, 9495.0, 9500.0, 9476.0, 9470.0, 9470.0, 9488.0, 9503.0, 9504.0, 9499.0, 9507.0, 9505.0, 9497.0, 9490.0, 9489.0, 9480.0, 9486.0, 9481.0, 9488.0, 9478.0, 9498.0, 9499.0, 9505.0, 9503.0, 9489.0, 9481.0, 9480.0, 9465.0, 9464.0, 9470.0, 9477.0, 9478.0, 9484.0, 9488.0, 9484.0, 9488.0, 9475.0, 9473.0, 9472.0, 9471.0, 9464.0, 9465.0, 9479.0, 9487.0, 9484.0, 9499.0, 9507.0, 9506.0, 9500.0, 9493.0, 9492.0, 9490.0, 9488.0, 9474.0, 9472.0, 9465.0, 9473.0, 9475.0, 9484.0, 9482.0, 9481.0, 9466.0, 9465.0, 9463.0, 9463.0, 9464.0, 9466.0, 9475.0, 9477.0, 9474.0, 9474.0, 9483.0, 9500.0, 9503.0, 9503.0, 9501.0, 9508.0, 9502.0, 9508.0, 9500.0, 9498.0, 9489.0, 9485.0, 9470.0, 9455.0, 9440.0, 9451.0, 9446.0, 9468.0, 9471.0, 9478.0, 9472.0, 9466.0, 9464.0, 9444.0, 9460.0, 9461.0, 9461.0, 9469.0, 9464.0, 9465.0, 9457.0, 9463.0, 9463.0, 9463.0, 9464.0, 9471.0, 9467.0, 9467.0, 9471.0, 9470.0, 9492.0, 9501.0, 9506.0, 9488.0, 9492.0, 9478.0, 9458.0, 9470.0, 9468.0, 9466.0, 9472.0, 9477.0, 9493.0, 9493.0, 9490.0, 9480.0, 9465.0, 9470.0, 9476.0, 9486.0, 9497.0, 9511.0, 9511.0, 9503.0, 9489.0, 9481.0, 9487.0, 9494.0, 9490.0, 9500.0, 9507.0, 9501.0, 9498.0, 9496.0, 9490.0, 9489.0, 9489.0, 9496.0, 9504.0, 9506.0, 9498.0, 9505.0, 9502.0, 9510.0, 9523.0, 9520.0, 9518.0, 9502.0, 9492.0, 9485.0, 9497.0, 9496.0, 9490.0, 9487.0, 9473.0, 9472.0, 9475.0, 9468.0, 9468.0, 9469.0, 9484.0, 9484.0, 9485.0, 9492.0, 9494.0, 9493.0, 9491.0, 9492.0, 9483.0, 9495.0, 9501.0, 9497.0, 9489.0, 9480.0, 9492.0, 9492.0, 9492.0, 9486.0, 9494.0, 9500.0, 9494.0, 9502.0, 9505.0, 9505.0, 9503.0, 9497.0, 9488.0, 9477.0, 9470.0, 9474.0, 9486.0, 9507.0, 9500.0, 9502.0, 9493.0, 9485.0, 9489.0, 9491.0, 9493.0, 9500.0, 9510.0, 9515.0, 9503.0, 9494.0, 9492.0, 9476.0, 9489.0, 9487.0, 9488.0, 9468.0, 9461.0, 9477.0, 9466.0, 9464.0, 9462.0, 9480.0, 9478.0, 9490.0, 9496.0, 9497.0, 9485.0, 9483.0, 9487.0, 9475.0, 9473.0, 9460.0, 9460.0, 9459.0, 9474.0, 9483.0, 9497.0, 9482.0, 9481.0, 9484.0, 9481.0, 9461.0, 9458.0, 9444.0, 9448.0, 9435.0, 9440.0, 9440.0, 9446.0, 9440.0, 9449.0, 9469.0, 9472.0, 9461.0, 9474.0, 9475.0],
      "WindowWidth": [20142.0, 20105.0, 20096.0, 20134.0, 20157.0, 20160.0, 20111.0, 20100.0, 20101.0, 20142.0, 20171.0, 20175.0, 20167.0, 20181.0, 20176.0, 20158.0, 20145.0, 20141.0, 20123.0, 20132.0, 20127.0, 20140.0, 20127.0, 20162.0, 20166.0, 20175.0, 20169.0, 20139.0, 20124.0, 20119.0, 20091.0, 20088.0, 20097.0, 20113.0, 20116.0, 20127.0, 20140.0, 20134.0, 20139.0, 20114.0, 20109.0, 20105.0, 20102.0, 20090.0, 20096.0, 20120.0, 20137.0, 20138.0, 20167.0, 20183.0, 20178.0, 20166.0, 20152.0, 20148.0, 20140.0, 20136.0, 20111.0, 20105.0, 20094.0, 20112.0, 20119.0, 20134.0, 20128.0, 20124.0, 20097.0, 20092.0, 20089.0, 20089.0, 20093.0, 20100.0, 20119.0, 20126.0, 20118.0, 20117.0, 20135.0, 20172.0, 20180.0, 20180.0, 20173.0, 20186.0, 20176.0, 20183.0, 20167.0, 20160.0, 20140.0, 20126.0, 20098.0, 20070.0, 20042.0, 20059.0, 20053.0, 20098.0, 20107.0, 20117.0, 20105.0, 20095.0, 20087.0, 20051.0, 20076.0, 20080.0, 20083.0, 20099.0, 20090.0, 20093.0, 20077.0, 20086.0, 20087.0, 20088.0, 20092.0, 20106.0, 20093.0, 20108.0, 20108.0, 20112.0, 20155.0, 20171.0, 20178.0, 20146.0, 20151.0, 20127.0, 20090.0, 20110.0, 20106.0, 20099.0, 20107.0, 20124.0, 20156.0, 20159.0, 20144.0, 20123.0, 20095.0, 20101.0, 20112.0, 20137.0, 20162.0, 20189.0, 20187.0, 20173.0, 20144.0, 20129.0, 20138.0, 20152.0, 20152.0, 20173.0, 20184.0, 20174.0, 20164.0, 20157.0, 20144.0, 20144.0, 20145.0, 20158.0, 20176.0, 20181.0, 20166.0, 20177.0, 20179.0, 20194.0, 20220.0, 20217.0, 20208.0, 20176.0, 20153.0, 20140.0, 20163.0, 20158.0, 20147.0, 20140.0, 20116.0, 20110.0, 20110.0, 20101.0, 20101.0, 20103.0, 20130.0, 20130.0, 20132.0, 20144.0, 20150.0, 20147.0, 20140.0, 20142.0, 20133.0, 20155.0, 20163.0, 20158.0, 20142.0, 20126.0, 20143.0, 20146.0, 20147.0, 20137.0, 20153.0, 20163.0, 20153.0, 20168.0, 20178.0, 20177.0, 20172.0, 20159.0, 20139.0, 20114.0, 20100.0, 20115.0, 20144.0, 20184.0, 20173.0, 20174.0, 20158.0, 20141.0, 20146.0, 20151.0, 20160.0, 20173.0, 20192.0, 20201.0, 20178.0, 20158.0, 20151.0, 20128.0, 20153.0, 20148.0, 20148.0, 20114.0, 20101.0, 20124.0, 20106.0, 20100.0, 20096.0, 20124.0, 20130.0, 20157.0, 20169.0, 20169.0, 20151.0, 20144.0, 20148.0, 20126.0, 20122.0, 20097.0, 20097.0, 20097.0, 20124.0, 20146.0, 20170.0, 20149.0, 20145.0, 20145.0, 20132.0, 20095.0, 20090.0, 20063.0, 20068.0, 20046.0, 20053.0, 20052.0, 20061.0, 20053.0, 20074.0, 20109.0, 20119.0, 20103.0, 20123.0, 20126.0]
    },
    "slices": {}
  },
  "NumberOfVolumes": 264
}