{
  "AcquisitionMatrixPE": 104,
  "AcquisitionNumber": 1,
  "AcquisitionTime": "11:52:3.497500",
  "BandwidthPerPixelPhaseEncode": 16.578,
  "BaseResolution": 104,
  "BodyPartExamined": "BRAIN",
  "ConsistencyInfo": "N4_VE11C_LATEST_20160120",
  "ConversionSoftware": "dcm2niix",
  "ConversionSoftwareVersion": "v1.0.20190410  GCC6.3.0",
  "DerivedVendorReportedEchoSpacing": 0.000580009,
  "DeviceSerialNumber": "166018",
  "DwellTime": 2.1e-06,
  "EchoTime": 0.037,
  "EchoTrainLength": 104,
  "EffectiveEchoSpacing": 0.000580009,
  "FlipAngle": 68,
  "ImageComments": "Unaliased_MB6_PE3_LB",
  "ImageOrientationPatientDICOM": [0.999806, -0.017416, -0.00914958, 0.0150081, 0.975913, -0.217641],
  "ImageType": [
    "ORIGINAL",
    "PRIMARY",
    "M",
    "MB",
    "ND",
    "MOSAIC"
],
  "ImagingFrequency": 123.191,
  "InPlanePhaseEncodingDirectionDICOM": "COL",
  "InstitutionAddress": "Washington_Place_6_NYC_NYC_US_10003",
  "InstitutionName": "NYU_Center_for_Brain_Imaging",
  "InstitutionalDepartmentName": "Department",
  "MRAcquisitionType": "2D",
  "MagneticFieldStrength": 3,
  "Manufacturer": "Siemens",
  "ManufacturersModelName": "Prisma",
  "Modality": "MR",
  "MultibandAccelerationFactor": 6,
  "PartialFourier": 1,
  "PatientPosition": "HFS",
  "PercentPhaseFOV": 100,
  "PhaseEncodingDirection": "j",
  "PhaseEncodingSteps": 104,
  "PhaseResolution": 1,
  "PixelBandwidth": 2290,
  "ProcedureStepDescription": "Investigators_Winawer",
  "ProtocolName": "task-sfprescaled_cmrr_mbepi_s6_2mm_66sl_PA_TR1.0",
  "PulseSequenceDetails": "%CustomerSeq%_cmrr_mbep2d_bold",
  "ReceiveCoilActiveElements": "HC1-7",
  "ReceiveCoilName": "HeadNeck_64",
  "ReconMatrixPE": 104,
  "RepetitionTime": 1,
  "SAR": 0.0710762,
  "ScanOptions": "FS",
  "ScanningSequence": "EP",
  "SequenceName": "epfid2d1_104",
  "SequenceVariant": "SK_SS",
  "SeriesDescription": "task-sfprescaled_cmrr_mbepi_s6_2mm_66sl_PA_TR1.0",
  "SeriesNumber": 22,
  "ShimSetting": [279, -12606, -8449, 336, -4, -238, -109, -14],
  "SliceThickness": 2,
  "SliceTiming": [0, 0.535, 0.0875, 0.6225, 0.1775, 0.7125, 0.2675, 0.8, 0.355, 0.89, 0.445, 0, 0.535, 0.0875, 0.6225, 0.1775, 0.7125, 0.2675, 0.8, 0.355, 0.89, 0.445, 0, 0.535, 0.0875, 0.6225, 0.1775, 0.7125, 0.2675, 0.8, 0.355, 0.89, 0.445, 0, 0.535, 0.0875, 0.6225, 0.1775, 0.7125, 0.2675, 0.8, 0.355, 0.89, 0.445, 0, 0.535, 0.0875, 0.6225, 0.1775, 0.7125, 0.2675, 0.8, 0.355, 0.89, 0.445, 0, 0.535, 0.0875, 0.6225, 0.1775, 0.7125, 0.2675, 0.8, 0.355, 0.89, 0.445],
  "SoftwareVersions": "syngo_MR_E11",
  "SpacingBetweenSlices": 2,
  "StationName": "AWP166018",
  "TaskName": "sfprescaled",
  "TotalReadoutTime": 0.0597409,
  "TxRefAmp": 245.7,
  "WipMemBlock": "72863f80-38b2-4e52-a741-2bdc88044504||Sequence: R016 ve11c/master r/8780670; Nov 27 2017 15:05:12 by eja",
  "dcmmeta_affine": [
    [-1.9996129274368286, 0.030016222968697548, -0.025439279153943062, 106.42506408691406],
    [0.03483204543590546, 1.9518269300460815, -0.4349231719970703, -69.68172454833984],
    [-0.01829916052520275, 0.43528205156326294, 1.9519720077514648, -66.03307342529297],
    [0.0, 0.0, 0.0, 1.0]
],
  "dcmmeta_reorient_transform": [
    [0.0, -1.0, 0.0, 103.0],
    [1.0, 0.0, 0.0, 0.0],
    [0.0, 0.0, 1.0, 0.0],
    [0.0, 0.0, 0.0, 1.0]
],
  "dcmmeta_shape": [104, 104, 66, 264],
  "dcmmeta_slice_dim": 2,
  "dcmmeta_version": 0.6,
  "global": {
    "const": {
      "AccessionNumber": "k5rbL6p1",
      "AcquisitionMatrix": [104, 0, 0, 104],
      "AngioFlag": "N",
      "BitsAllocated": 16,
      "BitsStored": 16,
      "BodyPartExamined": "BRAIN",
      "Columns": 936,
      "EchoNumbers": 1,
      "EchoTime": 37.0,
      "EchoTrainLength": 104,
      "FlipAngle": 68.0,
      "HighBit": 15,
      "ImageOrientationPatient": [0.99980646495223, -0.0174160221162, -0.0091495799559, 0.0150081115578, 0.97591349025416, -0.2176410258371],
      "ImagePositionPatient": [-953.84246633373, -928.82634822519, 167.4907630342],
      "ImageType": [
        "ORIGINAL",
        "PRIMARY",
        "M",
        "MB",
        "ND",
        "MOSAIC"
],
      "ImagedNucleus": "1H",
      "ImagingFrequency": 123.190714,
      "InPlanePhaseEncodingDirection": "COL",
      "MRAcquisitionType": "2D",
      "MagneticFieldStrength": 3.0,
      "Manufacturer": "SIEMENS",
      "ManufacturerModelName": "Prisma",
      "Modality": "MR",
      "NumberOfAverages": 1.0,
      "NumberOfPhaseEncodingSteps": 104,
      "PercentPhaseFieldOfView": 100.0,
      "PercentSampling": 100.0,
      "PerformedProcedureStepStartTime": "111304.219000",
      "PhotometricInterpretation": "MONOCHROME2",
      "PixelBandwidth": 2290.0,
      "PixelRepresentation": 0,
      "PixelSpacing": [2.0, 2.0],
      "ProtocolName": "task-sfprescaled_cmrr_mbepi_s6_2mm_66sl_PA_TR1.0",
      "RepetitionTime": 1000.0,
      "Rows": 936,
      "SAR": 0.07107616936717,
      "SamplesPerPixel": 1,
      "ScanOptions": "FS",
      "ScanningSequence": "EP",
      "SequenceName": "epfid2d1_104",
      "SequenceVariant": [
        "SK",
        "SS"
],
      "SeriesDescription": "task-sfprescaled_cmrr_mbepi_s6_2mm_66sl_PA_TR1.0",
      "SeriesNumber": 22,
      "SeriesTime": "115325.654000",
      "SliceLocation": -50.647944165855,
      "SliceThickness": 2.0,
      "SmallestImagePixelValue": 0,
      "SoftwareVersions": "syngo MR E11",
      "SpacingBetweenSlices": 1.9999999674386,
      "SpecificCharacterSet": "ISO_IR 100",
      "StudyID": "1",
      "StudyTime": "111304.154000",
      "TransmitCoilName": "Body",
      "VariableFlipAngleFlag": "N",
      "WindowCenterWidthExplanation": "Algo1",
      "dBdt": 0.0},
    "slices": {}
  },
  "time": {
    "samples": {
      "AcquisitionNumber": [1, 2, 3, 4, 5, 6, 7, 8, 9, 10, 11, 12, 13, 14, 15, 16, 17, 18, 19, 20, 21, 22, 23, 24, 25, 26, 27, 28, 29, 30, 31, 32, 33, 34, 35, 36, 37, 38, 39, 40, 41, 42, 43, 44, 45, 46, 47, 48, 49, 50, 51, 52, 53, 54, 55, 56, 57, 58, 59, 60, 61, 62, 63, 64, 65, 66, 67, 68, 69, 70, 71, 72, 73, 74, 75, 76, 77, 78, 79, 80, 81, 82, 83, 84, 85, 86, 87, 88, 89, 90, 91, 92, 93, 94, 95, 96, 97, 98, 99, 100, 101, 102, 103, 104, 105, 106, 107, 108, 109, 110, 111, 112, 113, 114, 115, 116, 117, 118, 119, 120, 121, 122, 123, 124, 125, 126, 127, 128, 129, 130, 131, 132, 133, 134, 135, 136, 137, 138, 139, 140, 141, 142, 143, 144, 145, 146, 147, 148, 149, 150, 151, 152, 153, 154, 155, 156, 157, 158, 159, 160, 161, 162, 163, 164, 165, 166, 167, 168, 169, 170, 171, 172, 173, 174, 175, 176, 177, 178, 179, 180, 181, 182, 183, 184, 185, 186, 187, 188, 189, 190, 191, 192, 193, 194, 195, 196, 197, 198, 199, 200, 201, 202, 203, 204, 205, 206, 207, 208, 209, 210, 211, 212, 213, 214, 215, 216, 217, 218, 219, 220, 221, 222, 223, 224, 225, 226, 227, 228, 229, 230, 231, 232, 233, 234, 235, 236, 237, 238, 239, 240, 241, 242, 243, 244, 245, 246, 247, 248, 249, 250, 251, 252, 253, 254, 255, 256, 257, 258, 259, 260, 261, 262, 263, 264],
      "AcquisitionTime": ["115203.497500", "115204.497500", "115205.497500", "115206.497500", "115207.497500", "115208.497500", "115209.497500", "115210.497500", "115211.497500", "115212.497500", "115213.497500", "115214.497500", "115215.497500", "115216.497500", "115217.497500", "115218.497500", "115219.497500", "115220.497500", "115221.497500", "115222.497500", "115223.497500", "115224.497500", "115225.497500", "115226.497500", "115227.497500", "115228.497500", "115229.497500", "115230.497500", "115231.497500", "115232.497500", "115233.497500", "115234.497500", "115235.497500", "115236.497500", "115237.497500", "115238.497500", "115239.497500", "115240.497500", "115241.497500", "115242.497500", "115243.497500", "115244.497500", "115245.497500", "115246.497500", "115247.497500", "115248.497500", "115249.497500", "115250.497500", "115251.497500", "115252.497500", "115253.497500", "115254.497500", "115255.497500", "115256.497500", "115257.497500", "115258.497500", "115259.497500", "115300.497500", "115301.497500", "115302.497500", "115303.497500", "115304.497500", "115305.497500", "115306.497500", "115307.497500", "115308.497500", "115309.497500", "115310.497500", "115311.497500", "115312.497500", "115313.497500", "115314.497500", "115315.497500", "115316.497500", "115317.497500", "115318.497500", "115319.497500", "115320.497500", "115321.497500", "115322.497500", "115323.497500", "115324.497500", "115325.497500", "115326.497500", "115327.497500", "115328.497500", "115329.497500", "115330.497500", "115331.497500", "115332.497500", "115333.497500", "115334.497500", "115335.497500", "115336.497500", "115337.497500", "115338.497500", "115339.497500", "115340.497500", "115341.497500", "115342.497500", "115343.497500", "115344.497500", "115345.497500", "115346.497500", "115347.497500", "115348.497500", "115349.497500", "115350.497500", "115351.497500", "115352.497500", "115353.497500", "115354.497500", "115355.497500", "115356.497500", "115357.497500", "115358.497500", "115359.497500", "115400.497500", "115401.497500", "115402.497500", "115403.497500", "115404.497500", "115405.497500", "115406.497500", "115407.497500", "115408.497500", "115409.497500", "115410.497500", "115411.497500", "115412.497500", "115413.497500", "115414.497500", "115415.497500", "115416.497500", "115417.497500", "115418.497500", "115419.497500", "115420.497500", "115421.497500", "115422.497500", "115423.497500", "115424.497500", "115425.497500", "115426.497500", "115427.497500", "115428.497500", "115429.497500", "115430.497500", "115431.497500", "115432.497500", "115433.497500", "115434.497500", "115435.497500", "115436.497500", "115437.497500", "115438.497500", "115439.497500", "115440.497500", "115441.497500", "115442.497500", "115443.497500", "115444.497500", "115445.497500", "115446.497500", "115447.497500", "115448.497500", "115449.497500", "115450.497500", "115451.497500", "115452.497500", "115453.497500", "115454.497500", "115455.497500", "115456.497500", "115457.497500", "115458.497500", "115459.497500", "115500.497500", "115501.497500", "115502.497500", "115503.497500", "115504.497500", "115505.497500", "115506.497500", "115507.497500", "115508.497500", "115509.497500", "115510.497500", "115511.497500", "115512.497500", "115513.497500", "115514.497500", "115515.497500", "115516.497500", "115517.497500", "115518.497500", "115519.497500", "115520.497500", "115521.497500", "115522.497500", "115523.497500", "115524.497500", "115525.497500", "115526.497500", "115527.497500", "115528.497500", "115529.497500", "115530.497500", "115531.497500", "115532.497500", "115533.497500", "115534.497500", "115535.497500", "115536.497500", "115537.497500", "115538.497500", "115539.497500", "115540.497500", "115541.497500", "115542.497500", "115543.497500", "115544.497500", "115545.497500", "115546.497500", "115547.497500", "115548.497500", "115549.497500", "115550.497500", "115551.497500", "115552.497500", "115553.497500", "115554.497500", "115555.497500", "115556.497500", "115557.497500", "115558.497500", "115559.497500", "115600.497500", "115601.497500", "115602.497500", "115603.497500", "115604.497500", "115605.497500", "115606.497500", "115607.497500", "115608.497500", "115609.497500", "115610.497500", "115611.497500", "115612.497500", "115613.497500", "115614.497500", "115615.497500", "115616.497500", "115617.497500", "115618.497500", "115619.497500", "115620.497500", "115621.497500", "115622.497500", "115623.497500", "115624.497500", "115625.497500", "115626.497500"],
      "ContentTime": ["115325.657000", "115325.660000", "115325.670000", "115325.673000", "115325.676000", "115325.679000", "115325.682000", "115325.686000", "115325.689000", "115325.692000", "115325.695000", "115325.698000", "115325.700000", "115325.703000", "115325.706000", "115325.709000", "115325.712000", "115325.715000", "115325.718000", "115325.720000", "115325.723000", "115325.726000", "115325.729000", "115325.732000", "115325.735000", "115325.738000", "115325.741000", "115325.744000", "115325.746000", "115325.749000", "115325.752000", "115325.755000", "115325.764000", "115325.767000", "115325.770000", "115325.773000", "115325.776000", "115325.778000", "115325.781000", "115325.784000", "115325.787000", "115325.790000", "115325.793000", "115325.796000", "115325.799000", "115345.623000", "115345.626000", "115345.629000", "115345.632000", "115345.635000", "115345.637000", "115345.640000", "115345.643000", "115345.646000", "115345.649000", "115345.652000", "115345.655000", "115345.657000", "115345.660000", "115345.663000", "115345.666000", "115345.669000", "115345.672000", "115345.675000", "115345.678000", "115345.681000", "115345.683000", "115345.686000", "115345.689000", "115345.692000", "115345.695000", "115345.698000", "115345.701000", "115345.704000", "115405.623000", "115405.626000", "115405.629000", "115405.632000", "115405.635000", "115405.638000", "115405.640000", "115405.643000", "115405.646000", "115405.649000", "115405.652000", "115405.655000", "115405.658000", "115405.661000", "115405.663000", "115405.666000", "115405.669000", "115405.672000", "115405.675000", "115405.678000", "115405.681000", "115405.683000", "115405.686000", "115405.689000", "115405.706000", "115405.709000", "115405.711000", "115405.714000", "115425.624000", "115425.627000", "115425.630000", "115425.633000", "115425.636000", "115425.639000", "115425.641000", "115425.644000", "115425.647000", "115425.650000", "115425.653000", "115425.656000", "115425.659000", "115425.662000", "115425.665000", "115425.667000", "115425.670000", "115425.673000", "115425.676000", "115425.679000", "115425.682000", "115425.693000", "115425.696000", "115425.699000", "115425.701000", "115425.704000", "115425.707000", "115425.710000", "115425.713000", "115445.624000", "115445.627000", "115445.630000", "115445.633000", "115445.636000", "115445.638000", "115445.641000", "115445.644000", "115445.647000", "115445.650000", "115445.653000", "115445.656000", "115445.659000", "115445.661000", "115445.664000", "115445.667000", "115445.670000", "115445.673000", "115445.676000", "115445.679000", "115445.682000", "115445.685000", "115445.688000", "115445.691000", "115445.693000", "115445.696000", "115445.699000", "115445.702000", "115505.623000", "115505.626000", "115505.629000", "115505.632000", "115505.635000", "115505.638000", "115505.640000", "115505.643000", "115505.646000", "115505.649000", "115505.652000", "115505.655000", "115505.658000", "115505.661000", "115505.664000", "115505.667000", "115505.669000", "115505.672000", "115505.675000", "115505.678000", "115505.681000", "115505.684000", "115525.623000", "115525.626000", "115525.629000", "115525.632000", "115525.635000", "115525.638000", "115525.641000", "115525.644000", "115525.647000", "115525.650000", "115525.653000", "115525.656000", "115525.658000", "115525.661000", "115525.664000", "115525.667000", "115525.670000", "115525.673000", "115525.676000", "115525.679000", "115545.623000", "115545.626000", "115545.629000", "115545.632000", "115545.635000", "115545.638000", "115545.641000", "115545.644000", "115545.646000", "115545.649000", "115545.652000", "115545.655000", "115545.658000", "115545.661000", "115545.664000", "115545.667000", "115545.670000", "115545.673000", "115545.676000", "115545.679000", "115605.623000", "115605.626000", "115605.629000", "115605.632000", "115605.635000", "115605.638000", "115605.641000", "115605.644000", "115605.647000", "115605.650000", "115605.652000", "115605.655000", "115605.658000", "115605.661000", "115605.664000", "115605.667000", "115605.670000", "115605.673000", "115605.676000", "115605.679000", "115625.623000", "115625.626000", "115625.629000", "115625.632000", "115625.635000", "115625.638000", "115625.641000", "115625.643000", "115625.646000", "115625.649000", "115625.652000", "115625.655000", "115625.658000", "115625.661000", "115625.664000", "115625.667000", "115625.670000", "115625.672000", "115625.675000", "115625.678000", "115628.163000", "115628.166000", "115628.174000"],
      "InstanceCreationTime": ["115325.657000", "115325.660000", "115325.670000", "115325.673000", "115325.676000", "115325.679000", "115325.682000", "115325.686000", "115325.689000", "115325.692000", "115325.695000", "115325.698000", "115325.700000", "115325.703000", "115325.706000", "115325.709000", "115325.712000", "115325.715000", "115325.718000", "115325.720000", "115325.723000", "115325.726000", "115325.729000", "115325.732000", "115325.735000", "115325.738000", "115325.741000", "115325.744000", "115325.746000", "115325.749000", "115325.752000", "115325.755000", "115325.764000", "115325.767000", "115325.770000", "115325.773000", "115325.776000", "115325.778000", "115325.781000", "115325.784000", "115325.787000", "115325.790000", "115325.793000", "115325.796000", "115325.799000", "115345.623000", "115345.626000", "115345.629000", "115345.632000", "115345.635000", "115345.637000", "115345.640000", "115345.643000", "115345.646000", "115345.649000", "115345.652000", "115345.655000", "115345.657000", "115345.660000", "115345.663000", "115345.666000", "115345.669000", "115345.672000", "115345.675000", "115345.678000", "115345.681000", "115345.683000", "115345.686000", "115345.689000", "115345.692000", "115345.695000", "115345.698000", "115345.701000", "115345.704000", "115405.623000", "115405.626000", "115405.629000", "115405.632000", "115405.635000", "115405.638000", "115405.640000", "115405.643000", "115405.646000", "115405.649000", "115405.652000", "115405.655000", "115405.658000", "115405.661000", "115405.663000", "115405.666000", "115405.669000", "115405.672000", "115405.675000", "115405.678000", "115405.681000", "115405.683000", "115405.686000", "115405.689000", "115405.706000", "115405.709000", "115405.711000", "115405.714000", "115425.624000", "115425.627000", "115425.630000", "115425.633000", "115425.636000", "115425.639000", "115425.641000", "115425.644000", "115425.647000", "115425.650000", "115425.653000", "115425.656000", "115425.659000", "115425.662000", "115425.665000", "115425.667000", "115425.670000", "115425.673000", "115425.676000", "115425.679000", "115425.682000", "115425.693000", "115425.696000", "115425.699000", "115425.701000", "115425.704000", "115425.707000", "115425.710000", "115425.713000", "115445.624000", "115445.627000", "115445.630000", "115445.633000", "115445.636000", "115445.638000", "115445.641000", "115445.644000", "115445.647000", "115445.650000", "115445.653000", "115445.656000", "115445.659000", "115445.661000", "115445.664000", "115445.667000", "115445.670000", "115445.673000", "115445.676000", "115445.679000", "115445.682000", "115445.685000", "115445.688000", "115445.691000", "115445.693000", "115445.696000", "115445.699000", "115445.702000", "115505.623000", "115505.626000", "115505.629000", "115505.632000", "115505.635000", "115505.638000", "115505.640000", "115505.643000", "115505.646000", "115505.649000", "115505.652000", "115505.655000", "115505.658000", "115505.661000", "115505.664000", "115505.667000", "115505.669000", "115505.672000", "115505.675000", "115505.678000", "115505.681000", "115505.684000", "115525.623000", "115525.626000", "115525.629000", "115525.632000", "115525.635000", "115525.638000", "115525.641000", "115525.644000", "115525.647000", "115525.650000", "115525.653000", "115525.656000", "115525.658000", "115525.661000", "115525.664000", "115525.667000", "115525.670000", "115525.673000", "115525.676000", "115525.679000", "115545.623000", "115545.626000", "115545.629000", "115545.632000", "115545.635000", "115545.638000", "115545.641000", "115545.644000", "115545.646000", "115545.649000", "115545.652000", "115545.655000", "115545.658000", "115545.661000", "115545.664000", "115545.667000", "115545.670000", "115545.673000", "115545.676000", "115545.679000", "115605.623000", "115605.626000", "115605.629000", "115605.632000", "115605.635000", "115605.638000", "115605.641000", "115605.644000", "115605.647000", "115605.650000", "115605.652000", "115605.655000", "115605.658000", "115605.661000", "115605.664000", "115605.667000", "115605.670000", "115605.673000", "115605.676000", "115605.679000", "115625.623000", "115625.626000", "115625.629000", "115625.632000", "115625.635000", "115625.638000", "115625.641000", "115625.643000", "115625.646000", "115625.649000", "115625.652000", "115625.655000", "115625.658000", "115625.661000", "115625.664000", "115625.667000", "115625.670000", "115625.672000", "115625.675000", "115625.678000", "115628.163000", "115628.166000", "115628.174000"],
      "InstanceNumber": [1, 2, 3, 4, 5, 6, 7, 8, 9, 10, 11, 12, 13, 14, 15, 16, 17, 18, 19, 20, 21, 22, 23, 24, 25, 26, 27, 28, 29, 30, 31, 32, 33, 34, 35, 36, 37, 38, 39, 40, 41, 42, 43, 44, 45, 46, 47, 48, 49, 50, 51, 52, 53, 54, 55, 56, 57, 58, 59, 60, 61, 62, 63, 64, 65, 66, 67, 68, 69, 70, 71, 72, 73, 74, 75, 76, 77, 78, 79, 80, 81, 82, 83, 84, 85, 86, 87, 88, 89, 90, 91, 92, 93, 94, 95, 96, 97, 98, 99, 100, 101, 102, 103, 104, 105, 106, 107, 108, 109, 110, 111, 112, 113, 114, 115, 116, 117, 118, 119, 120, 121, 122, 123, 124, 125, 126, 127, 128, 129, 130, 131, 132, 133, 134, 135, 136, 137, 138, 139, 140, 141, 142, 143, 144, 145, 146, 147, 148, 149, 150, 151, 152, 153, 154, 155, 156, 157, 158, 159, 160, 161, 162, 163, 164, 165, 166, 167, 168, 169, 170, 171, 172, 173, 174, 175, 176, 177, 178, 179, 180, 181, 182, 183, 184, 185, 186, 187, 188, 189, 190, 191, 192, 193, 194, 195, 196, 197, 198, 199, 200, 201, 202, 203, 204, 205, 206, 207, 208, 209, 210, 211, 212, 213, 214, 215, 216, 217, 218, 219, 220, 221, 222, 223, 224, 225, 226, 227, 228, 229, 230, 231, 232, 233, 234, 235, 236, 237, 238, 239, 240, 241, 242, 243, 244, 245, 246, 247, 248, 249, 250, 251, 252, 253, 254, 255, 256, 257, 258, 259, 260, 261, 262, 263, 264],
      "LargestImagePixelValue": [33827, 33315, 32524, 32111, 32170, 32093, 31907, 31680, 31777, 31943, 32332, 32185, 32485, 31882, 32192, 32178, 32167, 32061, 32178, 32252, 32001, 32174, 32097, 32206, 32225, 32686, 32203, 31710, 31726, 31512, 31263, 31311, 31421, 31473, 32057, 31602, 31670, 31923, 31831, 31921, 31420, 31641, 31738, 31477, 32201, 31972, 31780, 32356, 31875, 31923, 32153, 31772, 31638, 31908, 32199, 32558, 30891, 32042, 31711, 31737, 31758, 31237, 32398, 32058, 31475, 31489, 31752, 31828, 31761, 31580, 31406, 32560, 31525, 31732, 31361, 32124, 31856, 31836, 31325, 32014, 31943, 32147, 31669, 31789, 31215, 31580, 32017, 32220, 32165, 32527, 31933, 31877, 32266, 31590, 31513, 31643, 31718, 32067, 31622, 31780, 31633, 31885, 31728, 31814, 31782, 31459, 31985, 31511, 31935, 32426, 32013, 32345, 32142, 31606, 31793, 31364, 31614, 31419, 31325, 31828, 33156, 31984, 32535, 31933, 32838, 32159, 32165, 32394, 32981, 32085, 31486, 32338, 31808, 31714, 31366, 32488, 31703, 31641, 32135, 32011, 31520, 32688, 32904, 32623, 31302, 32093, 31777, 31586, 31570, 32682, 32384, 31917, 31482, 33198, 32515, 32944, 31326, 33121, 33449, 32947, 33733, 33560, 33708, 32865, 33745, 33024, 33060, 32791, 33440, 33729, 34180, 34086, 34554, 34360, 34523, 34550, 34614, 35244, 34292, 33938, 34283, 34189, 33909, 34246, 34327, 34264, 33937, 33740, 34114, 33760, 33848, 33849, 33361, 33154, 33335, 33064, 33249, 32784, 33182, 33271, 32789, 33313, 33251, 33545, 33480, 33622, 33761, 33784, 33115, 33199, 32939, 32840, 32117, 32823, 33008, 32139, 32227, 33062, 32285, 32123, 33005, 32506, 32938, 32331, 32451, 32556, 32168, 31958, 32125, 32886, 32149, 31657, 32230, 32716, 31677, 32013, 32419, 32161, 31583, 32332, 32430, 32144, 31812, 32727, 32028, 31988, 31990, 32402, 31936, 31722, 31927, 32155, 31921, 31973, 32033, 32234, 32088, 32048, 31508, 32026, 31794, 31913, 31474, 31882],
      "WindowCenter": [9659.0, 9621.0, 9588.0, 9568.0, 9564.0, 9558.0, 9558.0, 9558.0, 9557.0, 9550.0, 9545.0, 9542.0, 9542.0, 9544.0, 9549.0, 9550.0, 9558.0, 9554.0, 9561.0, 9562.0, 9555.0, 9562.0, 9555.0, 9560.0, 9561.0, 9567.0, 9561.0, 9554.0, 9555.0, 9543.0, 9542.0, 9540.0, 9533.0, 9533.0, 9552.0, 9548.0, 9554.0, 9563.0, 9558.0, 9563.0, 9542.0, 9539.0, 9521.0, 9511.0, 9522.0, 9524.0, 9536.0, 9558.0, 9566.0, 9561.0, 9554.0, 9538.0, 9536.0, 9542.0, 9549.0, 9555.0, 9480.0, 9521.0, 9524.0, 9532.0, 9525.0, 9518.0, 9532.0, 9535.0, 9522.0, 9521.0, 9529.0, 9529.0, 9528.0, 9518.0, 9519.0, 9553.0, 9553.0, 9554.0, 9546.0, 9559.0, 9559.0, 9544.0, 9537.0, 9551.0, 9552.0, 9551.0, 9543.0, 9536.0, 9529.0, 9526.0, 9536.0, 9538.0, 9555.0, 9564.0, 9559.0, 9559.0, 9557.0, 9536.0, 9521.0, 9524.0, 9526.0, 9541.0, 9541.0, 9533.0, 9535.0, 9540.0, 9526.0, 9523.0, 9514.0, 9509.0, 9528.0, 9517.0, 9509.0, 9547.0, 9551.0, 9565.0, 9560.0, 9547.0, 9538.0, 9522.0, 9528.0, 9520.0, 9514.0, 9533.0, 9577.0, 9563.0, 9574.0, 9555.0, 9567.0, 9545.0, 9535.0, 9533.0, 9545.0, 9533.0, 9523.0, 9541.0, 9530.0, 9528.0, 9521.0, 9530.0, 9510.0, 9516.0, 9515.0, 9516.0, 9525.0, 9547.0, 9571.0, 9566.0, 9549.0, 9555.0, 9548.0, 9540.0, 9538.0, 9555.0, 9549.0, 9542.0, 9522.0, 9550.0, 9537.0, 9540.0, 9510.0, 9541.0, 9562.0, 9559.0, 9574.0, 9581.0, 9574.0, 9563.0, 9573.0, 9563.0, 9562.0, 9563.0, 9575.0, 9582.0, 9589.0, 9588.0, 9603.0, 9607.0, 9607.0, 9604.0, 9603.0, 9601.0, 9579.0, 9564.0, 9572.0, 9570.0, 9563.0, 9569.0, 9570.0, 9571.0, 9565.0, 9565.0, 9570.0, 9556.0, 9554.0, 9561.0, 9550.0, 9549.0, 9549.0, 9543.0, 9541.0, 9527.0, 9538.0, 9538.0, 9527.0, 9540.0, 9548.0, 9557.0, 9565.0, 9565.0, 9570.0, 9565.0, 9544.0, 9551.0, 9561.0, 9577.0, 9562.0, 9573.0, 9573.0, 9555.0, 9552.0, 9563.0, 9559.0, 9560.0, 9574.0, 9576.0, 9581.0, 9560.0, 9549.0, 9547.0, 9551.0, 9562.0, 9563.0, 9581.0, 9571.0, 9558.0, 9560.0, 9565.0, 9546.0, 9552.0, 9560.0, 9569.0, 9564.0, 9575.0, 9569.0, 9563.0, 9548.0, 9556.0, 9543.0, 9541.0, 9533.0, 9536.0, 9532.0, 9528.0, 9542.0, 9557.0, 9562.0, 9569.0, 9554.0, 9552.0, 9547.0, 9546.0, 9539.0, 9552.0, 9554.0, 9554.0, 9541.0, 9552.0],
      "WindowWidth": [20574.0, 20476.0, 20398.0, 20352.0, 20334.0, 20324.0, 20324.0, 20325.0, 20321.0, 20305.0, 20291.0, 20283.0, 20282.0, 20290.0, 20299.0, 20303.0, 20319.0, 20315.0, 20327.0, 20329.0, 20318.0, 20330.0, 20315.0, 20324.0, 20325.0, 20338.0, 20327.0, 20314.0, 20316.0, 20295.0, 20293.0, 20288.0, 20271.0, 20276.0, 20310.0, 20304.0, 20315.0, 20334.0, 20328.0, 20335.0, 20292.0, 20283.0, 20244.0, 20224.0, 20239.0, 20246.0, 20279.0, 20321.0, 20335.0, 20326.0, 20311.0, 20280.0, 20273.0, 20282.0, 20298.0, 20308.0, 20156.0, 20238.0, 20247.0, 20266.0, 20252.0, 20241.0, 20269.0, 20278.0, 20256.0, 20251.0, 20266.0, 20265.0, 20260.0, 20241.0, 20244.0, 20310.0, 20318.0, 20320.0, 20303.0, 20325.0, 20324.0, 20295.0, 20281.0, 20306.0, 20312.0, 20308.0, 20292.0, 20278.0, 20265.0, 20256.0, 20273.0, 20278.0, 20315.0, 20333.0, 20325.0, 20323.0, 20317.0, 20278.0, 20248.0, 20252.0, 20259.0, 20288.0, 20289.0, 20271.0, 20277.0, 20285.0, 20256.0, 20246.0, 20229.0, 20223.0, 20256.0, 20236.0, 20215.0, 20301.0, 20310.0, 20337.0, 20330.0, 20307.0, 20286.0, 20254.0, 20263.0, 20251.0, 20233.0, 20274.0, 20356.0, 20339.0, 20355.0, 20323.0, 20341.0, 20300.0, 20277.0, 20271.0, 20289.0, 20270.0, 20255.0, 20285.0, 20269.0, 20263.0, 20247.0, 20258.0, 20224.0, 20233.0, 20232.0, 20237.0, 20258.0, 20301.0, 20348.0, 20342.0, 20314.0, 20324.0, 20310.0, 20294.0, 20286.0, 20314.0, 20304.0, 20289.0, 20253.0, 20298.0, 20274.0, 20276.0, 20226.0, 20280.0, 20322.0, 20319.0, 20348.0, 20361.0, 20351.0, 20330.0, 20345.0, 20333.0, 20330.0, 20334.0, 20354.0, 20368.0, 20380.0, 20375.0, 20406.0, 20418.0, 20421.0, 20410.0, 20406.0, 20397.0, 20355.0, 20325.0, 20339.0, 20336.0, 20323.0, 20334.0, 20338.0, 20341.0, 20332.0, 20330.0, 20337.0, 20309.0, 20302.0, 20315.0, 20300.0, 20297.0, 20294.0, 20283.0, 20279.0, 20252.0, 20269.0, 20270.0, 20255.0, 20277.0, 20296.0, 20313.0, 20330.0, 20332.0, 20338.0, 20330.0, 20293.0, 20304.0, 20329.0, 20362.0, 20341.0, 20357.0, 20357.0, 20325.0, 20318.0, 20334.0, 20330.0, 20336.0, 20360.0, 20367.0, 20372.0, 20331.0, 20307.0, 20302.0, 20317.0, 20342.0, 20346.0, 20377.0, 20363.0, 20337.0, 20335.0, 20342.0, 20307.0, 20317.0, 20336.0, 20353.0, 20347.0, 20362.0, 20351.0, 20341.0, 20311.0, 20320.0, 20294.0, 20291.0, 20272.0, 20273.0, 20269.0, 20266.0, 20294.0, 20324.0, 20340.0, 20354.0, 20322.0, 20315.0, 20306.0, 20305.0, 20294.0, 20315.0, 20324.0, 20322.0, 20297.0, 20315.0]
    },
    "slices": {}
  },
  "NumberOfVolumes": 264
}